Time [s],Flexion(-)/extension(+),Abduction(+)/adduction(-),Internal(-)/external(+) rotation
0.0,-36.208409352809426,-13.046225501381569,11.432194183954023
0.05,-33.38218979794581,-13.087367215634208,10.309973806764663
0.1,-30.863030083944576,-13.19277311987342,9.52306565543984
0.15,-29.49111984551984,-13.329456828574344,9.671046949710759
0.2,-28.48443781681224,-13.391197997872238,9.82127149738489
0.25,-27.166366447841742,-13.271602064098454,9.888167751235361
0.3,-25.879742311315916,-13.234465320395566,9.827026172196122
0.35,-24.85550597760042,-13.362321525100862,9.485674201780743
0.4,-23.761114460100206,-13.7322833779626,9.342360041257674
0.45,-23.66554140905493,-13.817736963507336,9.379051473174599
0.5,-24.031660147309545,-13.766597450046607,9.556505182882544
0.55,-24.575600524839178,-13.79131796075852,10.015872709656657
0.6,-26.177756989550183,-13.882937639825613,10.081874401198359
0.65,-28.572409565095754,-14.053052991551999,10.023928086499682
0.7,-31.546166048754472,-14.581335247206686,10.140362399163408
0.75,-34.82238475638771,-15.151473265398396,10.236194494458179
0.8,-37.99278209250557,-15.622264541867056,10.307780405487433
0.85,-40.953415408188576,-15.926038325464672,10.390217185270204
0.9,-43.703306369428425,-16.139915853049022,10.265830045201323
0.95,-46.086472002050954,-16.38741603006264,9.981371736823364
1.0,-48.062918272272896,-16.38349361754685,9.380162311910933
1.05,-49.86670995495701,-16.23089805272121,8.668608688760466
1.1,-51.53790552807009,-16.355318570260334,8.28719215443049
1.15,-52.863924924568714,-16.793710410651297,8.057492098166684
1.2,-54.05472542640195,-17.103803988596788,7.902070586402496
1.25,-55.250726594443094,-17.27954182555803,7.804175302446868
1.3,-56.05248359037514,-17.438503227331744,7.858040237857939
1.35,-56.93659978477474,-17.495915988956796,7.956676582087869
1.4,-57.84430361935796,-17.526312581634073,7.952465838057752
1.45,-58.61448420421662,-17.501340976426455,7.85426641470215
1.5,-59.36287358779561,-17.43400192014034,7.711709826560088
1.55,-60.22573560862597,-17.378241831023555,7.5545282082241725
1.6,-61.19643198971473,-17.29154283449839,7.429272643604893
1.65,-62.05495572865942,-17.149541811836993,7.4420104452870435
1.7,-62.94040749169958,-17.035417191866376,7.615629799181601
1.75,-63.91931123439116,-16.904798034979475,7.770024550005425
1.8,-64.92763610568723,-16.60403022627128,7.986799057844596
1.85,-65.74650193204509,-16.14148721537015,8.755261112265128
1.9,-66.71215197058311,-15.76435270039112,9.304543600586346
1.95,-67.73507341084274,-15.421109160354426,9.78068610414177
2.0,-69.03065017351797,-15.249413799201673,10.182216514826163
2.05,-70.48355282733522,-15.271773358723394,10.609515880358284
2.1,-71.90653959986146,-15.320778174595002,10.922974503177153
2.15,-73.25066652779165,-15.345464621116678,11.129718763546027
2.2,-74.71593983588721,-15.451472940370659,11.40415749594711
2.25,-76.11818508106592,-15.609130406703796,11.722480245251576
2.3,-77.44497630819023,-15.670258679705004,11.955291972019495
2.35,-78.86527188958354,-15.810894127856526,12.144194750537073
2.4,-80.20314304865155,-15.999884326993062,12.3838174884428
2.45,-81.3095737929601,-16.162954373710793,12.68503021588553
2.5,-82.19121931670298,-16.343745011872088,12.892816769179953
2.55,-82.76201470675515,-16.56112963833207,13.042716848478836
2.6,-83.04778916383313,-16.709060339714373,13.172797460795964
2.65,-83.18515529580073,-16.835743361195345,13.16181017544334
2.7,-83.02657482037668,-16.86801038443022,13.117114923466492
2.75,-82.51843003517695,-16.777814302919587,12.99949793204746
2.8,-81.67502454334947,-16.648572128604137,12.708542662164502
2.85,-80.3311865244352,-16.459065463416003,12.20300889263869
2.9,-78.40416009995288,-16.25709823907011,11.564984972107416
2.95,-75.64089900367955,-15.918738176094315,10.652751875250832
3.0,-71.87818769971894,-15.643146585176735,9.468424861968272
3.05,-67.48445451004692,-15.929406970426001,8.305263415330844
3.1,-62.56939190658726,-16.511400360735315,7.260506362035881
3.15,-57.296205765750706,-16.777778305035046,5.66887533441027
3.2,-51.839998934706095,-16.45764761499094,3.9857972879249473
3.25,-46.924987757871655,-16.00955183259102,2.664606201485739
3.3,-43.1589754254151,-15.761995537127463,2.0453239817650455
3.35,-40.89241475311541,-15.6262846029671,2.00627135801695
3.4,-39.42550985252519,-15.479607099094475,2.6907780574211806
3.45,-38.72987170860992,-15.242021648122892,4.000465448107995
3.5,-37.68745767307154,-15.393754785234337,5.85938178100567
3.55,-35.72711442479416,-15.863323157823048,7.569792964106666
3.6,-33.46932358610877,-15.941514824523708,7.972882582332181
3.65,-31.61692095822672,-15.619497296115284,7.201238100378023
3.7,-30.172105880749275,-15.457420348360996,6.412752582087509
3.75,-28.893736773166125,-15.449150890166797,6.1373135640015075
3.8,-27.889679989551592,-15.431707895528586,6.025359111008377
3.85,-27.145149864534684,-15.169418982974344,5.554911947106157
3.9,-26.579860670240524,-15.026662801471845,4.873903108135952
3.95,-26.25447207609578,-15.180841793716748,4.225234103757223
4.0,-26.111762187066866,-15.295972979563796,3.659787912202114
4.05,-25.935652300718598,-15.30015866629974,3.058298331035813
4.1,-25.698683613377256,-15.365942404485422,2.4934300883616696
4.15,-25.428500219054055,-15.394109229985,1.930097640896831
4.2,-25.207258593720876,-15.181171639553186,1.2696943295522412
4.25,-25.248385805522137,-15.034606712901232,0.8159990305121971
4.3,-25.522340879301353,-15.01990529087551,0.6296988874441619
4.35,-25.725903737754543,-14.956335402828431,0.3547360627153327
4.4,-26.00096595172805,-14.825757773304003,-0.14788182953372317
4.45,-26.757615684972723,-14.549563491116825,-0.6593373511764048
4.5,-28.00693414609864,-14.142995563435294,-0.9836412003141578
4.55,-29.19067213162196,-13.71171943595627,-0.9136535794377362
4.6,-30.30886929900043,-13.242736218150279,-0.4944858134432165
4.65,-31.343801669535093,-12.66451729324785,0.08740499138292405
4.7,-32.26130367611518,-12.132589798745554,0.6971477630883042
4.75,-32.99319250098198,-11.79692648119721,1.283692288146045
4.8,-33.7047667943986,-11.658524180702567,1.8675427735951047
4.85,-34.36081238186147,-11.616924123386099,2.3744839367684
4.9,-34.92359789228286,-11.589062422751093,2.697337161706147
4.95,-35.35028590701685,-11.520447221894008,2.8584472689436202
5.0,-35.96085304938286,-11.433433524139732,2.8498776794908536
5.05,-36.70503652026129,-11.214950338885668,2.802997938044509
5.1,-37.54410114129995,-10.881882350013656,3.1194187744973494
5.15,-39.39459450273226,-10.186561655409156,3.7018151568378603
5.2,-42.63056136377197,-8.966082249463767,4.974249700742762
5.25,-46.71081391643235,-7.814286804561573,7.246868142336756
5.3,-51.03399167181972,-7.082153022608115,10.03351118975461
5.35,-54.927595253089805,-7.154888333549637,13.415337911081958
5.4,-57.85456631250338,-7.504821801379509,16.551247289051982
5.45,-59.99259085140592,-7.378683786259836,18.71351318078649
5.5,-62.0523067917758,-7.525865228935982,21.413040401585683
5.55,-63.97409087087348,-8.482636420921892,24.139568644815643
5.6,-65.74568251307187,-9.166905560674282,25.696183735842308
5.65,-67.30608850402827,-9.426913456151565,26.107474034655016
5.7,-68.92012462665893,-9.938412973159574,25.768184929952
5.75,-70.25932464014372,-10.689412138714077,25.172295960425505
5.8,-71.35952195537409,-11.410464968576166,24.472843806412484
5.85,-72.18548980798893,-11.600682030341126,23.569586953271173
5.9,-72.63448525938381,-11.710080652369697,22.864807499726844
5.95,-72.93260373449083,-12.070314949741968,22.433635910637992
6.0,-73.26768317481992,-12.253384454693467,21.919744370186322
6.05,-73.61712085566009,-12.107642037719984,21.34993864287463
6.1,-74.18754857149099,-12.206186041592169,21.301613765355864
6.15,-75.04341617278473,-12.871527628550956,21.9247255910127
6.2,-75.88508930650535,-13.673396626185959,22.71094731003967
6.25,-76.6231037511253,-14.282194787865517,23.282837627403214
6.3,-77.39041719948287,-15.019069547812839,23.959271290563198
6.35,-78.21414625721484,-16.02830159977087,24.722498465789602
6.4,-78.90129441416192,-17.002143736838875,25.112759527906782
6.45,-79.12292770477886,-17.850167561938708,25.1144123608757
6.5,-79.39703034150686,-18.66039867530445,24.91991039016666
6.55,-79.86199940375941,-19.724462152626906,24.87355749458474
6.6,-80.18309463121618,-21.0952153407746,25.144248798811848
6.65,-80.44411457016126,-22.400770599635663,25.331325254279072
6.7,-80.57738112313828,-23.21783917949339,25.161300799141454
6.75,-80.65738506635938,-23.365728959218085,24.766711560866884
6.8,-80.61030435129666,-22.994792485346128,24.534816997681823
6.85,-80.42990092475549,-22.648426665974362,24.60881884686969
6.9,-80.15086281359329,-22.29541790521833,24.664592553893183
6.95,-79.83243393224551,-21.97651258096753,24.53526843900688
7.0,-79.55441744172869,-21.65909553963946,24.318152910438133
7.05,-79.33237283509207,-21.181820144871196,24.02927204757644
7.1,-79.07028998383988,-20.85959137893141,24.014929035287487
7.15,-79.00956046571724,-20.747463688910397,24.194390263782104
7.2,-79.02216266590857,-20.53168112134086,24.356414609811623
7.25,-78.95318760380357,-20.045969680891375,24.539484112290342
7.3,-78.80416004838804,-19.485140125478814,24.746115128360415
7.35,-78.68230915166717,-19.171672578633157,24.93997716759115
7.4,-78.46112634731493,-18.97383171836463,25.066311217499013
7.45,-78.36173685735766,-18.758962206159175,25.05249671633329
7.5,-78.41634024393711,-18.832422826049296,25.07296426936981
7.55,-78.52506881229128,-19.290597935893782,25.22609552029859
7.6,-78.7855332478019,-19.880549706281027,25.169710990401907
7.65,-79.10819050283159,-20.479840576701832,25.11267958088612
7.7,-79.470046817079,-21.406939841170324,25.31850793722073
7.75,-79.68671945295048,-23.025047544787014,26.084741996027144
7.8,-79.85076699517714,-25.41463517664498,27.335912092468075
7.85,-80.137670530737,-28.25835769624021,28.716182576448837
7.9,-80.6860184543125,-30.956033044095264,30.180441450653582
7.95,-81.30432435565282,-33.13953344206887,31.511173372969857
8.0,-81.87547310940239,-34.58366085861303,32.67665537322115
8.05,-82.37207913353274,-35.36675941714637,33.61930296421451
8.1,-82.6649511647384,-35.76421215761709,34.23166941806053
8.15,-82.79776393854868,-36.01936102898483,34.538485150900925
8.2,-82.76381634217584,-36.15454143659732,34.41430068155903
8.25,-82.54715135174908,-36.09845053531888,33.77131702145894
8.3,-82.05587111600641,-35.61176226781161,32.41521347527213
8.35,-80.99739892912129,-34.16016045871196,29.893956697517613
8.4,-79.19721570570339,-31.263367334794562,25.92422350465996
8.45,-76.236899266814,-27.227511459130188,21.021117599836863
8.5,-71.9081562580714,-23.02238211638798,15.977414318010775
8.55,-66.29927927391496,-20.069443791359145,11.369060441566491
8.6,-59.33112596922448,-19.061754991327096,7.75687605807427
8.65,-51.767313522711845,-18.829926400729335,5.280319855979614
8.7,-44.34877683009233,-19.0599946424628,3.6662642120360567
8.75,-37.476951306938226,-18.968442812550755,1.1406300848230209
8.8,-32.191061342466874,-18.36809365545513,-1.7797765343296188
8.85,-28.108752516750748,-16.560939130114704,-4.016965329259494
8.9,-25.815234761868417,-15.33815277116242,-4.959718710240844
8.95,-25.055048125514112,-14.908123126944934,-5.156800144635759
9.0,-24.637662311850292,-15.022472842532256,-4.414176873968038
9.05,-24.52800349371231,-15.570194550843231,-3.143332512215636
9.1,-24.39543199563794,-15.667872332453912,-1.5391971566405511
9.15,-24.42758973418275,-15.006588036809678,0.03339454805047285
9.2,-24.507080531427366,-14.671558370905807,1.756850018582768
9.25,-23.70299075121277,-14.96513722623828,3.7508872140235723
9.3,-23.04536732257644,-15.249187443681507,5.489117787824769
9.35,-23.07610654821721,-15.383910790593449,6.943910799140772
9.4,-23.376072376277996,-15.729227030946706,8.589706441727373
9.45,-23.436575171126655,-16.295710884043615,10.532209706304911
9.5,-24.078865105883533,-16.49894329257363,12.233384505449315
9.55,-24.85971042036621,-16.612614397430658,13.692060043587475
9.6,-25.467792978355195,-17.280146080963828,14.967794796478882
9.65,-25.666435182603134,-17.933910752925097,15.828365434297995
9.7,-26.95755889000069,-18.062655974084656,15.674344037510991
9.75,-29.244012536853095,-18.206113890589826,15.206835401348975
9.8,-30.494560397766474,-19.08380954214945,16.146144400489387
9.85,-31.068279009764993,-20.590568791728643,18.880194206133535
9.9,-31.735907175798033,-21.279137224680426,20.568761711897046
9.95,-31.616049029208867,-20.499826424726205,19.90049669556326
10.0,-31.886175975809454,-19.79788854764957,18.292350771055066
10.05,-31.719491362192358,-19.593703181055155,16.065900577788234
10.1,-31.002043737899818,-19.618179510822188,13.4037288017179
10.15,-30.27211672737053,-20.032677357051785,10.426039495581726
10.2,-30.05660699938123,-20.836580208525696,7.36251347555859
10.25,-29.95720090556458,-21.729918869577443,4.275517817919446
10.3,-29.140402526728696,-22.306761756349832,1.16021984435531
10.35,-27.872700365666926,-22.557477583083426,-1.8940818800510684
10.4,-26.69843188075331,-22.960518007473095,-4.796006467092237
10.45,-25.63638075559703,-23.555350194963225,-7.274501447597045
10.5,-24.641995665060335,-24.221787158433383,-9.159606267812405
10.55,-23.788238348277606,-25.06548729004176,-11.040949253801623
10.6,-23.83923940300783,-26.162840762969644,-13.833284715440422
10.65,-24.402129272273196,-27.823220116379627,-16.683923050294737
10.7,-24.734679877546036,-29.778290090603907,-18.84124907253815
10.75,-24.65178238952084,-30.684443088336483,-21.063287273194458
10.8,-24.34777290754703,-30.735918326217096,-23.962981675970607
10.85,-23.94987322062705,-30.774918112847907,-27.407102500164722
10.9,-23.101586776787276,-30.779612042648413,-30.11049934108283
10.95,-21.891194239670195,-30.2409160030016,-31.758526801721306
11.0,-21.107831018202546,-29.661804193677117,-32.366245551767825
11.05,-21.00752961779842,-29.675067194671715,-31.59763248619577
11.1,-21.92270959879353,-30.2469726013855,-28.959162362705253
11.15,-22.50203353812434,-30.573105427348384,-24.007472058739474
11.2,-20.814454968766395,-30.075829966748643,-17.129044141378873
11.25,-17.30667708559992,-28.79619976915095,-10.137681312480126
11.3,-14.168740695306216,-26.586503015925548,-5.196195810427497
11.35,-12.792226285092752,-23.8243131593899,-3.7529055940430007
11.4,-12.705463260504294,-21.061467859136954,-3.8954759477827525
11.45,-12.690177199063704,-19.3460311776876,-3.3138237512251694
11.5,-12.773026246157043,-19.278964281739306,-2.5260927201206163
11.55,-12.920704906433093,-19.56358287447649,-2.782996390690579
11.6,-12.897439623229873,-19.696783549292764,-3.5223175834692615
11.65,-12.805571081362736,-19.879363027786148,-4.067590100384422
11.7,-12.905658088380404,-20.087911999281122,-4.333830143271492
11.75,-13.086899615707994,-20.126802028489163,-4.466349533061849
11.8,-13.272511428626517,-20.071768333396996,-4.5437797739076045
11.85,-13.465202216812926,-20.097301111604736,-4.60604828081935
11.9,-13.679512189169982,-20.149923108772796,-4.716965210460572
11.95,-14.051198187869383,-20.152224864671695,-4.906377500611786
12.0,-14.507343558881058,-20.14138225972436,-5.022557695484701
12.05,-15.132180369077863,-20.093575169559,-4.962433311136573
12.1,-15.813539987520155,-19.89783604667689,-4.628837267893066
12.15,-16.209207673372447,-19.76882080173683,-3.929301343180379
12.2,-16.25895565015042,-19.829381173614305,-3.1204075481562046
12.25,-16.070955480055922,-19.933961075876905,-2.630587935138857
12.3,-15.785470342058703,-19.99014658509191,-2.6023558635030617
12.35,-15.664194253934976,-20.082532876178313,-2.8803663585577595
12.4,-15.717724067790362,-20.138430269326378,-3.282074508241716
12.45,-15.830513756874877,-20.196852173384134,-3.6022553683457126
12.5,-16.028919074476264,-20.300071352462155,-3.7646907112325922
12.55,-16.21696714189445,-20.362210593689813,-3.928886193366922
12.6,-16.478787911338525,-20.395598101452723,-4.120262909931654
12.65,-16.75881190781343,-20.407531050892782,-4.205553203683014
12.7,-17.048775028406638,-20.40018553514747,-4.214283405531811
12.75,-17.303248310994704,-20.352680652820546,-4.205368587012385
12.8,-17.49234687121938,-20.28187074525505,-4.171048481426769
12.85,-17.584312334728757,-20.173599340885534,-4.067716231507046
12.9,-17.628847568191862,-20.108726850186795,-3.9537666536892293
12.95,-17.636660888415335,-20.093476572011877,-3.9197587031129113
13.0,-17.582455233294105,-20.072016388355973,-3.954056007238276
13.05,-17.519613782554142,-20.01517194526203,-4.030536557319272
13.1,-17.535265855257773,-19.978617458957096,-4.110348734243797
13.15,-17.623429689738646,-19.966996269386215,-4.163568443667535
13.2,-17.70384857085937,-19.907847794341627,-4.217001168352536
13.25,-17.812812583736974,-19.850255373739344,-4.264690147523616
13.3,-17.96167912613666,-19.817775345846893,-4.3049789728178816
13.35,-18.02932938728542,-19.82074526241194,-4.303761681492589
13.4,-18.099565306830875,-19.803643836994674,-4.375353150805514
13.45,-18.192699138746043,-19.809524326018078,-4.438714549351205
13.5,-18.38164477271184,-19.798676452841406,-4.471592457158793
13.55,-18.865225410914828,-19.626863693591098,-4.433087866241196
13.6,-20.078123787881303,-19.28562414185237,-4.455630463210242
13.65,-21.57676725794703,-18.86454355046593,-4.17048158313211
13.7,-23.51407672010983,-18.766846261076427,-3.392279249313791
13.75,-25.510523156200563,-18.961771374060493,-2.2457844866822105
13.8,-27.60785561376617,-19.484116180056947,-1.0268336861156084
13.85,-29.148670831278565,-19.806711959264828,0.45205522472677667
13.9,-30.26382803486067,-19.35912912053381,1.6960295339851386
13.95,-31.603331942932886,-18.529099829742336,2.0588054098751196
14.0,-32.4424452770348,-18.239543265161636,1.847374946363619
14.05,-31.40167252850696,-19.141425293331228,0.9016075495250642
14.1,-28.97514171085777,-20.166907389563757,-1.0223491159535782
14.15,-25.86514703043626,-20.100473552708003,-3.1333175892631
14.2,-22.94790896067931,-19.2114960474445,-4.33129024265596
14.25,-21.205228033026,-18.382957550587594,-4.332973733673339
14.3,-20.49495479627932,-17.53339668530646,-3.300270132455583
14.35,-20.479662804873918,-16.498683929071152,-1.7533113348744513
14.4,-20.86514551740038,-15.742259245672916,0.20873834278020034
14.45,-21.52406851602253,-15.453351540606713,2.499589962894866
14.5,-22.287511287435116,-15.572644620794112,5.098995508831161
14.55,-23.3467024640429,-15.582558852724906,7.977917076777483
14.6,-24.986243595241064,-14.383099867488502,11.316837979246804
14.65,-26.779473832835343,-13.79289297529585,14.974294791491937
14.7,-27.409642742634304,-14.931363885048627,17.46115976425515
14.75,-27.675739200104324,-17.17845285689432,17.161328890306784
14.8,-28.122357309280734,-18.964017603725974,14.031999075507134
14.85,-28.674089988224836,-19.61425028477018,9.47189575586146
14.9,-29.304233370801562,-19.64842643821382,5.251886247796982
14.95,-29.905485533935355,-19.57673154489152,2.5034797215498084
15.0,-30.539767179019094,-19.00219282205546,1.124867946362307
15.05,-31.026247859276513,-17.96279558635644,0.9447054711731214
15.1,-30.98773831688518,-16.91731468879384,1.768107410292622
15.15,-30.57034530973306,-16.16744482334561,2.8578035312699437
15.2,-30.127853407705636,-15.712462462804291,3.5130695758230197
15.25,-29.823406917712557,-15.685945632494649,3.6991865103494375
15.3,-29.545562081901558,-16.10127020519778,3.6113202003531315
15.35,-29.171868835402183,-16.414909536017394,3.2445225231167427
15.4,-28.814786269708996,-16.446995106174587,2.776277576722248
15.45,-28.593159598122956,-16.391199899512408,2.6464058293505945
15.5,-28.476851758098515,-16.355867155976775,2.9246087377401953
15.55,-28.358508611738223,-16.27516821168143,3.2962830940086945
15.6,-28.2918441717971,-16.16706541713054,3.661523391111013
