Time [s],Flexion(+)/extension(-),Sidebend left(-)/right(+)
0.0,1.5352344818185393,-6.3155631186254295
0.025,1.5560558189468912,-6.302628940672904
0.05,1.5769473000785308,-6.279053107385391
0.075,1.5939842951477683,-6.244975435761667
0.1,1.6184107469677134,-6.201795382728844
0.125,1.6557026804908823,-6.156244544418849
0.15,1.7012275017877942,-6.115402728958877
0.175,1.7446715959733083,-6.0826983881411945
0.2,1.7806512428427295,-6.060124948131888
0.225,1.8073200162803271,-6.045063531955126
0.25,1.8268922933410723,-6.031698188375124
0.275,1.842633635607184,-6.019699939488242
0.3,1.8459342850737075,-6.0069311529385425
0.325,1.8375732093094914,-5.985782872107701
0.35,1.8183014425780626,-5.947967371265713
0.375,1.7790744176934228,-5.901965449406155
0.4,1.7192825210095188,-5.864285948889082
0.425,1.658975377753591,-5.840474323739589
0.45,1.6263920356250714,-5.828690936512264
0.475,1.6314831281490816,-5.825329339598055
0.5,1.659124938134922,-5.823101376242165
0.525,1.6845039564458724,-5.811894129749632
0.55,1.6929966075248433,-5.794109667015694
0.575,1.6825173742369672,-5.7813820484268525
0.6,1.6589085265670136,-5.771110326247933
0.625,1.630102957066559,-5.763360944159936
0.65,1.6060585260213276,-5.762198192225265
0.675,1.5888415052610951,-5.766370312809433
0.7,1.5643816780990523,-5.773638488547443
0.725,1.5222451465964761,-5.780719381578759
0.75,1.486414020263187,-5.780547026067966
0.775,1.4494483617795426,-5.769371573934976
0.8,1.4036005756491143,-5.751085523674393
0.825,1.365236935746924,-5.743698922225845
0.85,1.3351805132355177,-5.7405216283146325
0.875,1.309056225182258,-5.731612955654042
0.9,1.2859318443095817,-5.7157735770385765
0.925,1.2674289422916056,-5.701729430264249
0.95,1.2557745861696565,-5.698723383035531
0.975,1.2424777777408258,-5.6993877301854186
1.0,1.2024580861671597,-5.695726582731845
1.025,1.1392832932650685,-5.6718436388490945
1.05,1.0905078193607678,-5.59564247449712
1.075,1.0931115719952844,-5.4605562678475055
1.1,1.157936946399818,-5.27570795268641
1.125,1.2659091607070683,-5.056826347716459
1.15,1.4295957954424392,-4.8468334929578765
1.175,1.6853505271755136,-4.683328849715011
1.2,2.017002397721667,-4.562387295650351
1.225,2.3766472550395994,-4.525626502322119
1.25,2.7722028170007715,-4.6179618248337455
1.275,3.267151850444013,-4.767220501667414
1.3,3.8106223168565947,-4.873372484010242
1.325,4.198905497680867,-4.88833636073808
1.35,4.28346121702929,-4.806223119368978
1.375,4.10448611608185,-4.665587271245812
1.4,3.8582842503999073,-4.558461576107591
1.425,3.7574222548875786,-4.576868816783202
1.45,3.9075466473387763,-4.70606261610321
1.475,4.22927700437189,-4.84645114763363
1.5,4.6113093295999334,-4.887118804462542
1.525,5.077460888730798,-4.696908873143607
1.55,5.615808851512068,-4.269487558705323
1.575,6.181471529833028,-3.8113796921062475
1.6,6.834601868900195,-3.531991356622258
1.625,7.63102930220588,-3.459946896197477
1.65,8.449830893197495,-3.4922280382837667
1.675,9.058648336046327,-3.57643166143264
1.7,9.355550295266601,-3.658837806790381
1.725,9.328013553778298,-3.6392896307363936
1.75,8.997198908092523,-3.5415312255803677
1.775,8.44159316291465,-3.4957576427104518
1.8,7.846433824989539,-3.580579974672352
1.825,7.257507141756258,-3.742571405791409
1.85,6.607322798902464,-3.8780586883800523
1.875,5.896107232260781,-3.928194572176379
1.9,5.1020931536377905,-4.062531649295772
1.925,4.386526201800677,-4.3496463625580555
1.95,3.798411642015361,-4.684028167524456
1.975,2.8912021995279384,-5.149606968084057
2.0,1.435913960051918,-5.797124453921691
2.025,-0.3520506382171027,-6.4403163545748985
2.05,-1.6254452290941794,-6.6475031402027716
2.075,-2.5142694352712796,-6.299161647717329
2.1,-4.852873120773128,-6.0359000615481
2.125,-8.50489283013145,-6.4578486309152865
2.15,-11.751062268549079,-7.813373958022426
2.175,-13.655734478168613,-9.390802607436497
2.2,-13.711120117931719,-10.65899461012477
2.225,-12.486008032039743,-11.801671821920571
2.25,-10.963413491918924,-12.825358338418663
2.275,-9.756482568851439,-13.501621631906596
2.3,-8.785871278000547,-13.858170417779897
2.325,-7.787888114468116,-14.138983119643294
2.35,-6.670504256532303,-14.5324692843254
2.375,-5.380956780759673,-15.338474401142468
2.4,-3.9802781219261765,-16.648011090243266
2.425,-2.6769479810904095,-18.20595415400942
2.45,-1.705421870161541,-19.808602362363978
2.475,-1.1349533302703574,-21.087218848510364
2.5,-0.9113057207829967,-21.740660534029125
2.525,-0.9113411494940142,-21.953350038304553
2.55,-0.8188771016424986,-21.98204069225764
2.575,-0.36612185843764106,-21.684183905355663
2.6,0.21537947157845566,-20.81984151184342
2.625,0.4325293339759053,-19.42016670370458
2.65,0.21854134427999744,-17.499747507919697
2.675,0.06995683408427132,-15.047776138623673
2.7,0.4235771854886437,-12.376726222945454
2.725,1.2721791310904582,-10.028083908538479
2.75,2.1642327637005994,-8.409925992834657
2.775,2.7850192834384044,-7.524128957105391
2.8,3.1442754434106845,-7.174885113540711
2.825,3.376486775353603,-7.118659888179215
2.85,3.4262362572919387,-7.1214977120426175
2.875,3.139937730041563,-6.945450521015973
2.9,2.5021613125675173,-6.381925607486635
2.925,1.7185828293609429,-5.428473115405084
2.95,1.055416047668612,-4.228280491898887
2.975,0.6964867649384459,-2.9288233602290137
3.0,0.7437220190761178,-1.6980293050171977
3.025,1.0470416704676098,-0.7316996359186541
3.05,1.265844932192462,-0.10425991369773648
3.075,1.1986589295362347,0.27431254287144957
3.1,1.0451478707353405,0.49588647755486337
3.125,1.116533234688777,0.5758218264053144
3.15,1.510243424682048,0.5573317679888277
3.175,2.0869191055453635,0.46311778460202135
3.2,2.6415143399253456,0.3298674110558256
3.225,3.0801884899166976,0.2502124330879187
3.25,3.4320432256068414,0.3352192025114254
3.275,3.728189032207373,0.5574387689052873
3.3,4.047040521099451,0.684888190275308
3.325,4.513273354002127,0.4842907022196642
3.35,5.091424231329342,-0.11283200389487266
3.375,5.628952588452617,-0.919748501332406
3.4,5.909353801002324,-1.519876830895609
3.425,5.898704876615554,-1.5356771483399732
3.45,5.796536144034013,-0.9241832796505083
3.475,5.681441553045216,0.07082561464765885
3.5,5.405095282225044,1.1100636237002586
3.525,4.993490653698609,1.927036981723368
3.55,4.671766715401213,2.4066938329575063
3.575,4.657596028985265,2.503718260974306
3.6,5.100601283930136,2.213808617534479
3.625,6.094551543535038,1.6250381689006097
3.65,7.54776656664552,0.9101078172991668
3.675,9.016440364272782,0.22108741521856778
3.7,9.9758171392916,-0.3903573611853308
3.725,10.093475289979276,-0.8810391886359918
3.75,9.374725086973408,-1.2314436125088573
3.775,8.135118056271798,-1.5190689305230634
3.8,6.891645709630903,-1.7742286761236414
3.825,6.042096125982645,-1.8746199891808484
3.85,5.650252005644559,-1.631519999363714
3.875,5.632600931056867,-1.0190332650306977
3.9,5.8150915326293875,-0.3381102828650091
3.925,5.849433279388434,-0.0893574108094956
3.95,5.487999806665331,-0.4382582368373237
3.975,4.931157979891344,-1.1325630101086765
4.0,4.742043239260311,-1.7820950848808514
4.025,5.104194124179819,-1.9096534251110555
4.05,5.645052919966696,-1.1273334498857475
4.075,5.628957191399468,0.7271668166432188
4.1,4.6540235672955514,3.4207140678124586
4.125,2.850314807704862,6.382775002368817
4.15,0.3108023273876454,9.101436280246965
4.175,-2.933306611033333,11.444430857633627
4.2,-6.64507645759304,13.452325803683001
4.225,-10.484561679424186,15.169915527784521
4.25,-14.228276381459125,16.618872588864733
4.275,-17.83374789112189,17.726900155598084
4.3,-21.14894645266778,18.304123353564155
4.325,-23.92675207811828,18.217737988219852
4.35,-26.163345194059993,17.65296163018459
4.375,-28.03032163821334,16.8608075377994
4.4,-29.646628785088563,15.961327246958241
4.425,-30.935589400038747,14.91710802157855
4.45,-31.75614893203776,13.569586300301726
4.475,-32.21563185702059,11.898155047302213
4.5,-32.58517866578809,10.12007220429766
4.525,-32.966698313508104,8.48999567596739
4.55,-33.26268926137212,7.067710134660745
4.575,-33.40458765161594,5.819115353145311
4.6,-33.381410881261466,4.620523124620787
4.625,-33.317697964902315,3.366101204362783
4.65,-33.352232160099895,2.0176456319638025
4.675,-33.55470190576361,0.6280325845900023
4.7,-33.88254518996749,-0.6433214186163071
4.725,-34.24196589559631,-1.8122376300444842
4.75,-34.52457081230071,-3.0655002465196644
4.775,-34.732635581524654,-4.566160430748457
4.8,-34.886603390378326,-6.419968569710441
4.825,-34.88915255838303,-8.504525402702672
4.85,-34.53598068340298,-10.375316087323245
4.875,-33.71477722007371,-11.799559941284624
4.9,-32.4805597409392,-12.853747806892008
4.925,-30.936917805333366,-13.546389982815052
4.95,-29.10146861772296,-13.917149476392627
4.975,-26.956719562908077,-14.062442713579589
5.0,-24.500623208430472,-13.99493833849629
5.025,-21.795546656867653,-13.724611704315025
5.05,-19.10918448578875,-13.291488912342013
5.075,-16.78308630699582,-12.664758010380199
5.1,-14.733066748409804,-11.857434492832605
5.125,-12.44167084314642,-10.876724593285816
5.15,-9.796510706705138,-9.583949720447068
5.175,-7.106461261183146,-7.973116506780817
5.2,-4.707066106545507,-6.25290126768941
5.225,-2.8803402086224525,-4.622570711569378
5.25,-1.7698986965161074,-3.248648620393851
5.275,-1.0045239239487136,-2.173291949813883
5.3,0.11490867913637132,-1.3913665276190734
5.325,1.765726168322808,-0.9040799332762596
5.35,3.450082085057321,-0.5944812561655476
5.375,4.5887513495159,-0.28432420842638545
5.4,4.830234491553522,0.10897076192080073
5.425,4.248351188904682,0.6214411191061142
5.45,3.4308254950433814,1.2076260282942781
5.475,2.8286407505049667,1.7299105404744821
5.5,2.1579267832294065,2.1883852006480655
5.525,0.9734047340869881,2.5821005885533332
5.55,-0.28345307063116587,2.961410321154615
5.575,-1.0026231578515878,3.348734702840767
5.6,-1.1658849691116866,3.5466489270675314
5.625,-0.9777126860564803,3.3515880933004008
5.65,-0.7076629523990247,2.6085769845149778
5.675,-0.5872045321146426,1.3994322178028031
5.7,-0.7170413450205326,0.04247321101005335
5.725,-1.0394118792365676,-1.2679942450338666
5.75,-1.5702006120516283,-2.5482398804047337
5.775,-2.298309894287164,-3.8397811926939043
5.8,-3.208303444836937,-5.175601922906862
5.825,-4.125599716679291,-6.581510229304387
5.85,-4.66946699180222,-8.050743582798537
5.875,-4.64184258725442,-9.421553916437942
5.9,-4.0663869052402095,-10.450719275636253
5.925,-3.0724012311375524,-11.089491093497692
5.95,-2.0098934818934424,-11.31460322692827
5.975,-1.312740448691512,-10.985778643520957
6.0,-1.2737113836185139,-10.036087159044776
6.025,-1.8415279539145581,-8.67523951386113
6.05,-2.921969052986143,-7.495694163255891
6.075,-4.4152503159660865,-7.024290867691183
6.1,-5.895253644593412,-7.183460861449819
6.125,-6.844664682251183,-7.79202918806464
6.15,-6.816056820760305,-8.622896855335485
6.175,-6.284080610532015,-9.330153578876658
6.2,-5.805455547979037,-9.79617035453402
6.225,-5.407851448884525,-10.05829755435611
6.25,-4.988527814694617,-9.945490337144976
6.275,-4.835908224535055,-9.272646570121529
6.3,-5.465938835291749,-8.195202184216546
6.325,-6.595446908861822,-7.100946473178239
6.35,-7.669664973649861,-6.266541464409337
6.375,-8.83736282863745,-6.057988478925315
6.4,-9.945261120453125,-6.544101325757657
6.425,-10.407489250590087,-7.349501604173905
6.45,-10.255159869594612,-8.015440031230606
6.475,-10.046376219658677,-8.323629155489495
6.5,-9.874196704076576,-8.481071887923228
6.525,-10.060683971311324,-8.676106017517013
6.55,-11.015572284978697,-8.661667758658062
6.575,-11.973683902228833,-7.924091893338191
6.6,-11.98572607795689,-6.34407062334215
6.625,-11.060681088198512,-4.465725118390961
6.65,-9.831729799884021,-2.9226204192846232
6.675,-8.723253367285414,-2.1792190330024432
6.7,-7.660005767078126,-2.2782449282598414
6.725,-6.49190048556227,-2.9020590459229907
6.75,-4.9784658706433325,-3.6536879592476157
6.775,-3.0618982013553415,-4.315944160331782
6.8,-1.3823965090810617,-4.823282768290522
6.825,-0.39028174207518374,-4.980980331211794
6.85,0.05462189981656762,-4.493722975957595
6.875,0.3698526561645468,-3.328240676250437
6.9,0.802578151743039,-1.9176720788724702
6.925,1.2317691414536767,-0.8160480340583337
6.95,1.3302789105778632,-0.21381996517865312
6.975,0.89155739138246,0.10034103865121514
7.0,0.21704589913439368,0.34532438902979135
7.025,-0.46704346277408204,0.532249804213576
7.05,-1.1847381058125102,0.506844290023554
7.075,-1.8606355513142638,-0.05862410631881031
7.1,-2.538443909673157,-1.179500287794365
7.125,-3.553631149906529,-2.1208401297120125
7.15,-5.0120343001272305,-2.27748759412702
7.175,-6.382341464373637,-1.8464554790683514
7.2,-6.974920108289258,-1.3867161689272185
7.225,-6.508627633482005,-1.171952951407542
7.25,-5.31667879310288,-1.186317419966862
7.275,-3.606235501799855,-1.1760825022572605
7.3,-1.583846828001203,-0.8893994607495889
7.325,0.07963334816106127,-0.3506649932252614
7.35,0.6820769582392978,0.2780076366560463
7.375,0.09260706846395085,0.8965091709673249
7.4,-0.971846606271767,1.4475415525663797
7.425,-1.6977061260392032,1.8635419116566705
7.45,-1.7495486935870082,2.004722532518001
7.475,-1.2172286078744072,1.659348515058895
7.5,-0.2093825648633161,0.9757451436692957
7.525,1.0122073931913147,0.3932287009550576
7.55,1.9828311981413662,0.13519597738357217
7.575,2.2918671965627797,0.17444424109351764
7.6,1.9851446640006385,0.35980600609112473
7.625,1.550327342564293,0.43531869052507777
7.65,1.4634061857760432,0.2900838379346132
7.675,2.1023512248130056,-0.007321844719704774
7.7,3.549636501085584,-0.3336250145537784
7.725,5.46993580913877,-0.5196184991406126
7.75,7.495086986954629,-0.4046544029848053
7.775,9.108202541086312,-0.13313447571889322
7.8,9.866856285677686,0.1665991507123642
7.825,9.770264011686397,0.5089794991749923
7.85,8.97697375221073,0.8508115099111301
7.875,7.711395072357545,1.2609677850486538
7.9,6.2038185142266284,1.7783721573551028
7.925,4.895706156147077,2.0853233869347236
7.95,4.369590822575581,1.9209825362961437
7.975,4.135079310438804,1.3348111778619935
8.0,3.68012452693298,0.74652730549664
8.025,3.7392115339325223,0.9967659461989369
8.05,4.896920844021033,2.2160516731119078
8.075,6.682474367940762,3.646584656222873
8.1,8.29371095140381,4.446104292196874
8.125,9.241034348160017,4.346504765440651
8.15,8.998281730414986,3.580206552856851
8.175,7.675944440136317,2.245070322811883
8.2,6.485910143210765,0.4167778613959418
8.225,6.376922961581246,-1.5925739488726167
8.25,6.927078929290177,-3.219208451924663
8.275,7.161896500868527,-3.9326021183623343
8.3,6.951791422496051,-3.9801969952940657
8.325,6.786519275556884,-4.027202416904502
8.35,7.007940291897293,-4.2684284438450755
8.375,7.42005495093162,-4.489173658553209
8.4,7.602051176762035,-4.7148501536479985
8.425,7.433898528141302,-5.037349837687442
8.45,6.910607543323961,-5.3855588004069785
8.475,6.1835802449950314,-5.791551105297974
8.5,5.691295374925413,-6.2566945494842825
8.525,6.048495699382466,-6.730550604141764
8.55,7.3497355684584,-7.460639096844621
8.575,8.959828015920317,-8.539713735963675
8.6,10.257229298516304,-9.49841230340036
8.625,10.955806996806956,-9.75836481857356
8.65,10.709005142148785,-9.287466720180923
8.675,9.198820865820029,-8.59048530238073
8.7,6.915007655496991,-8.000480634268241
8.725,4.964843980003366,-7.459006285478092
8.75,4.229911583823826,-6.6858933523550785
8.775,4.700794181131521,-5.344266002493502
8.8,5.359487322892504,-3.6084977382931456
8.825,5.452314449026853,-2.1101790276242762
8.85,5.029058767133736,-1.169047531729362
8.875,4.487336427434451,-0.5981647430795484
8.9,4.299816817176056,-0.24419340697786263
8.925,4.6117590719610035,-0.2979874073497036
8.95,5.118573696156331,-0.8731304084853698
8.975,5.940219726441682,-1.769791584916592
9.0,7.464079641262468,-2.623961693930311
9.025,8.954431331878856,-3.461211052731118
9.05,9.59271825403481,-4.38445534324418
9.075,9.114839073590103,-5.175150444319201
9.1,7.725447822528556,-5.637024757426145
9.125,6.0195789360887515,-5.972052750103741
9.15,4.648758144125507,-6.515296208155663
9.175,4.164967328111791,-7.248373611150104
9.2,4.743735458942793,-7.867909330025553
9.225,5.756627565579689,-8.064274112203673
9.25,6.285024633417925,-7.965909419552145
9.275,5.910498653350827,-7.915904096905478
9.3,4.77517752503022,-8.167502311537152
9.325,3.437112000812892,-8.79035197150877
9.35,2.658540129061431,-9.64110524870362
9.375,2.618298063080263,-10.488877855396305
9.4,2.709515630835859,-10.889302967970053
9.425,2.3872833999896916,-10.435941412942851
9.45,1.5066265494645807,-9.378417646576867
9.475,0.7394825638555967,-8.284160670833659
9.5,0.4514423734590637,-6.948417798064542
9.525,0.46139144513100316,-5.036212741390412
9.55,0.6304393850208055,-3.1746013197368583
9.575,0.8794545468933336,-2.299715736027223
9.6,1.0559146033786282,-2.4957619864388647
9.625,1.184465216476954,-3.2789767227870006
9.65,1.5983761075641658,-4.1983009937798155
9.675,2.0364742220626426,-4.770971115215301
9.7,2.156605582799622,-4.707364205934939
9.725,2.0740050249887445,-4.198671838970315
9.75,1.8958380922184415,-3.6325558286044415
9.775,1.5933863846710132,-3.1985264967096474
9.8,1.130731302365238,-2.8790465045879765
9.825,0.6505847058833821,-2.73615919265767
9.85,0.38252111571083436,-2.888925210001614
9.875,0.4076142166349465,-3.22989642579721
9.9,0.6134135059142349,-3.4320120439289417
9.925,0.863264159247763,-3.296777141441223
9.95,1.1734827130454424,-2.927924359596551
9.975,1.7550714685750048,-2.6929916112267245
10.0,2.9042630133437073,-2.985380362212436
10.025,4.686855477875823,-3.8095595018874473
10.05,6.772626133588027,-4.728286658204342
10.075,8.982674561690303,-5.333920895468779
10.1,11.408669538567075,-5.565641945340703
10.125,13.723316137134635,-5.4156756493354585
10.15,15.380436836166377,-4.843341489767262
10.175,16.160744694960012,-4.0682319870606
10.2,16.690706859178402,-3.20536270741141
10.225,17.94489304933342,-1.8726432510758173
10.25,19.958448659305827,0.285353027075287
10.275,21.951774250743497,2.844567007873185
10.3,23.351714444121136,4.905393093977983
10.325,23.790487681826317,6.035271181308791
10.35,23.512717570521634,6.534527046219014
10.375,23.49582674451229,6.921570089705996
10.4,24.140940740735612,7.521092228214457
10.425,24.869457359980316,8.339200446354722
10.45,25.020406183890362,9.061451466990269
10.475,24.55215343435451,9.373553361635357
10.5,23.951581098227642,9.315664008166467
10.525,23.49774782308995,9.002209845296914
10.55,23.078832055906673,8.49195755706014
10.575,22.537086800964087,7.929841046788144
10.6,21.890434436433164,7.353361736610153
10.625,21.18167685861291,6.5653783494896
10.65,20.411158712334665,5.459605890814189
10.675,19.540466161843856,4.111358309112123
10.7,18.56485017447347,2.7426600993062897
10.725,17.68292115117738,1.5263821596898353
10.75,16.984227974307935,0.49963252249291934
10.775,16.157146447335123,-0.483818417081933
10.8,15.185015820125324,-1.6788678710315348
10.825,14.418698217924849,-2.8687321176384573
10.85,13.914197064600513,-3.530445098863778
10.875,13.656956649907736,-3.4550488395067824
10.9,13.856555583230266,-2.874714588951602
10.925,14.561032512730094,-2.209912818827756
10.95,15.736294213000615,-1.5800601317175615
10.975,17.694951611214403,-0.6524372535829601
11.0,20.567236374046544,0.845450775822706
11.025,23.578862846173088,2.7743831333728384
11.05,25.620172336491486,4.771709205892747
11.075,26.15763656824886,6.602671942089381
11.1,25.70430319253237,8.069125352623704
11.125,25.169646763199683,8.81496097478409
11.15,24.945554862781254,8.526305523351741
11.175,24.99711472443644,7.3100759907174035
11.2,25.146388656209556,5.737320298168244
11.225,25.220762222068743,4.5269265849914575
11.25,25.244301938912617,4.1473540902419845
11.275,25.356854302952275,4.622846067980925
11.3,25.55168080040049,5.556130596180047
11.325,25.735574328562567,6.390162965196139
11.35,25.907256637041602,6.822561822115199
11.375,25.99317953751673,6.865468867921718
11.4,25.85211207091496,6.646067249347493
11.425,25.471284122691905,6.304679387802816
11.45,25.001543481789184,6.001671682780345
11.475,24.594365210107497,5.926321745744023
