Time [s],Anterior(+)/posterior(-) tilt,Lateral tilt left(-)/right(+),Rotation left(+)/right(-)
0.0,-0.8402022955460371,-0.07941886849670934,-0.40561582527162554
0.025,-0.8485483652975981,-0.0840525771953039,-0.4106876394263363
0.05,-0.8590397035030343,-0.09101412737045614,-0.41705646884903447
0.075,-0.8690412068025732,-0.09825477805710837,-0.42237076857514627
0.1,-0.8795026760995841,-0.10374705011506351,-0.4264360844691724
0.125,-0.8921241457865293,-0.10673565381686942,-0.4293291450828441
0.15,-0.9089289593294003,-0.10865472347917213,-0.43102534583266033
0.175,-0.9294915182654527,-0.11051930739236958,-0.43062294400889056
0.2,-0.95033122498418,-0.11217674793992957,-0.4280041096534822
0.225,-0.968160483767809,-0.11401451996880302,-0.42378261251889804
0.25,-0.9826180995830569,-0.11653318883553451,-0.41754932015793894
0.275,-0.9948086073658668,-0.11830383502703225,-0.40914566357265597
0.3,-1.00466746589028,-0.11730404554403555,-0.3996721284618115
0.325,-1.013107412912522,-0.11481126427027977,-0.38917560609578805
0.35,-1.0218739253939126,-0.11314270361854349,-0.3779311055797931
0.375,-1.031120511114158,-0.11395736767069062,-0.3657714134755536
0.4,-1.0393691378703662,-0.11659179912178513,-0.3494031866359147
0.425,-1.0461291328625226,-0.11855626807076851,-0.330150743183292
0.45,-1.052054652047415,-0.11817845687944023,-0.31540981306357185
0.475,-1.0551940467920278,-0.1155570199935813,-0.31108704430737477
0.5,-1.055184184945244,-0.11153697006129323,-0.31746412117983164
0.525,-1.0534137140147013,-0.10686064356683782,-0.33041984268056085
0.55,-1.0487177071528453,-0.10339931264730332,-0.3458336062189622
0.575,-1.0385796732554478,-0.10298238162659372,-0.3622274226737951
0.6,-1.0231713123553086,-0.10448072806269748,-0.3808195674460721
0.625,-1.0061496296034458,-0.10560585632185689,-0.4032675112035684
0.65,-0.9910766862121126,-0.10481658354535425,-0.4266939229511196
0.675,-0.9787689070508907,-0.10278589699609353,-0.44632354708341965
0.7,-0.9669389518626286,-0.10128386673562395,-0.4619530116373482
0.725,-0.9546962439533173,-0.10139908155784981,-0.47716494156743267
0.75,-0.9424851174975941,-0.10419762679738742,-0.4948451703457052
0.775,-0.9306614816400473,-0.10958356733450626,-0.515951816424188
0.8,-0.9208403193165657,-0.1167821876239301,-0.5399675431079658
0.825,-0.9141478978864013,-0.12611743189669716,-0.5671714235951488
0.85,-0.9088442642978263,-0.1378357602346698,-0.5997476812185554
0.875,-0.9033022053347554,-0.15225115255798896,-0.6401345659560885
0.9,-0.8985276055511547,-0.16899176737354646,-0.6887584501777766
0.925,-0.8971191680900981,-0.1886707908625117,-0.7433679483394708
0.95,-0.9012180721796146,-0.21237780506422863,-0.8031760210176494
0.975,-0.9095270832924489,-0.24095646391680425,-0.870134733661734
1.0,-0.9201033576424901,-0.2753790435583317,-0.9459288047918164
1.025,-0.9313505105431343,-0.31825443047037316,-1.0314140319340945
1.05,-0.9439559295376656,-0.3748713651323137,-1.1253053291802697
1.075,-0.9609463249725065,-0.44590573163952846,-1.2211432867617051
1.1,-0.9837862598705547,-0.5254534998285866,-1.3118082659024988
1.125,-1.0132758495073029,-0.6064534995680676,-1.3931680071814045
1.15,-1.0481215246576745,-0.6849242242244291,-1.4713964331698788
1.175,-1.0822809473324304,-0.7618533535317946,-1.5502656355748121
1.2,-1.1111478853776309,-0.8393157748966144,-1.6197249784611563
1.225,-1.1553620848937518,-0.9238931294949433,-1.6791467314574604
1.25,-1.2502717912699597,-1.0236238997216929,-1.7543133329600304
1.275,-1.37572948101993,-1.1409634031221376,-1.8782705978996233
1.3,-1.4882257426156842,-1.2736464461072061,-2.0647399327811393
1.325,-1.5808727147589259,-1.4064080959531817,-2.308769276856089
1.35,-1.6730237207757452,-1.5070095188953239,-2.602574398956249
1.375,-1.7976319441487643,-1.5425407994773814,-2.932365772172277
1.4,-1.9907495525296157,-1.5083227460549322,-3.2861328067003157
1.425,-2.254681759242665,-1.445171229795346,-3.674607903743379
1.45,-2.5199328012980184,-1.389577332776961,-4.093218905138903
1.475,-2.652163797460322,-1.3334422899317375,-4.478367103535528
1.5,-2.610139100845997,-1.276725888560187,-4.779485340187926
1.525,-2.489594524503269,-1.211425221367883,-5.023439481966925
1.55,-2.4019177808886805,-1.0616629769666002,-5.2583836965872415
1.575,-2.3658294381400036,-0.7348601710316497,-5.462558818633545
1.6,-2.3497046239584547,-0.2170739872216837,-5.563476079911825
1.625,-2.374170380936159,0.4269562423693791,-5.509548860320998
1.65,-2.491780354780216,1.1137132392654117,-5.305712885859106
1.675,-2.724396447084417,1.7487993103229913,-4.993144701262279
1.7,-3.057427954702472,2.232636303530116,-4.630666346762282
1.725,-3.445058997557611,2.515655481808127,-4.286295890686378
1.75,-3.820487831790674,2.6140239634871723,-4.013138025287432
1.775,-4.15054667356319,2.554456926083209,-3.7839534826448604
1.8,-4.487524047478785,2.3186744173171676,-3.4898325376400448
1.825,-4.930631769708259,1.8686113009444927,-3.0459228020529374
1.85,-5.499194985787357,1.2528680593956643,-2.468451538900855
1.875,-6.062697190247175,0.6288317424472913,-1.8136305607083747
1.9,-6.469785576623006,0.14127161751382264,-1.0928591028702115
1.925,-6.704671388899329,-0.16278762382737347,-0.2877057686110857
1.95,-6.847377600848902,-0.31097335900658457,0.5785005356358287
1.975,-6.950426441860848,-0.3422869660399574,1.4723290565648683
2.0,-6.973215270393128,-0.2730562236029685,2.387587374825351
2.025,-6.829544091372489,-0.130264836341782,3.299845586902867
2.05,-6.496656253029625,0.019292149841958355,4.191123820011747
2.075,-6.068372016107973,0.10398256579316681,5.10609949391835
2.1,-5.685163622594793,0.10220264955192704,6.11668866625079
2.125,-5.4073047699131465,0.05347160770636872,7.192671149406464
2.15,-5.146369679753327,0.023473889170223517,8.165327844659856
2.175,-4.768715605877883,0.07197773187849262,8.900557224676431
2.2,-4.2554517386062685,0.21893603118073954,9.430665183507523
2.225,-3.6518089734837247,0.4362670626974548,9.839045401172909
2.25,-2.99931029412495,0.6718864152097439,10.148422753371877
2.275,-2.339854076916286,0.8698270731100697,10.353625652697799
2.3,-1.6666533937792414,1.0067535180440408,10.467244678769204
2.325,-0.9201922527859345,1.1099362150547032,10.5267767850683
2.35,-0.059870338286562685,1.2081573866174853,10.557264181139436
2.375,0.9205724178692886,1.2850948826459074,10.557766741693515
2.4,1.9992531403929275,1.2861846347691201,10.529980166858438
2.425,3.1023159565394467,1.1657328302518741,10.50462760753438
2.45,4.060114692061824,0.9341077586202057,10.577722524383121
2.475,4.627408125514779,0.6482035175311054,10.87609549862487
2.5,4.702435322269853,0.35073050885730095,11.427335617182496
2.525,4.3768697448937175,0.027866382130501906,12.087271130866812
2.55,3.8232602995951903,-0.3696271279631756,12.63280406121055
2.575,3.3313151276693147,-0.8458715157819402,12.872730272833206
2.6,3.1796968139390227,-1.3317072421679674,12.685643657482592
2.625,3.2512826367982814,-1.761962625270844,12.117216977355278
2.65,3.14290593898751,-2.0891490490974567,11.36378915117372
2.675,2.7448691063833506,-2.22073836423634,10.62278141468091
2.7,2.271732839628603,-2.1100589114951376,10.033411029799156
2.725,1.8981297574839149,-1.8554235536400736,9.632481829810173
2.75,1.6219995883872098,-1.5604557791438523,9.386061401536494
2.775,1.370891043042196,-1.2187907494068335,9.262855214903437
2.8,1.1221265745583573,-0.8181649936383844,9.23176532381388
2.825,0.8374480387352615,-0.4219195103350238,9.224891367453964
2.85,0.4552055443241562,-0.08436031116015778,9.140167987837929
2.875,-0.027498925897292855,0.23762885563924896,8.912467115803201
2.9,-0.5717995696107351,0.6491782733613427,8.529929904381877
2.925,-1.1026081081820562,1.2132809861806855,7.976728966053843
2.95,-1.5107109941037185,1.8766086552530454,7.238508429192433
2.975,-1.6979033575909666,2.49257839585837,6.348403751468416
3.0,-1.642710086787971,2.9137412791234585,5.367155180784423
3.025,-1.438127271165283,3.0522766147722566,4.322212733105318
3.05,-1.192427496203309,2.8933126675381406,3.214479460221302
3.075,-0.9160101644627264,2.493448294190742,2.027638901335025
3.1,-0.5672668826151662,1.9543564695029696,0.705701681659725
3.125,-0.1430147081220006,1.365982709317471,-0.7909981139360214
3.15,0.31980979662754583,0.7724683950593665,-2.4311081979440616
3.175,0.7918823287652158,0.17947322616463962,-4.130327316608076
3.2,1.2866336204678177,-0.43395090892905536,-5.807330102199396
3.225,1.8190587687086084,-1.0812765374907929,-7.428504971089834
3.25,2.3553044670123295,-1.7241792849807764,-9.002772299490024
3.275,2.873658043202585,-2.2921569531127353,-10.5390755209508
3.3,3.4109791637162012,-2.7651059984233575,-12.025953202900016
3.325,3.9899401821353644,-3.20536567047266,-13.435485218014309
3.35,4.577364671413249,-3.6805165468761945,-14.794713204366953
3.375,5.122473213666383,-4.193267667977459,-16.233842106416844
3.4,5.5710993366010495,-4.696576471903015,-17.84731925704397
3.425,5.858934722588013,-5.139331184486363,-19.58497769006864
3.45,5.929955684328518,-5.48780634716608,-21.362694418432593
3.475,5.8078014155140085,-5.696667455994454,-23.198374550180862
3.5,5.581360528110903,-5.708593672261707,-25.189731668751534
3.525,5.314014413143923,-5.504261484617613,-27.413099562054555
3.55,5.00494647448131,-5.168825164595925,-29.83079947642204
3.575,4.632067470036956,-4.893467847217237,-32.33515274909098
3.6,4.18857703229254,-4.848217439497613,-34.890116896892636
3.625,3.646886416217554,-5.050888088447822,-37.49870994221256
3.65,3.0966442164225727,-5.342554696788635,-40.1117344247451
3.675,2.7416815436143986,-5.575360138873467,-42.67973110787147
3.7,2.662082466308984,-5.673181564990675,-45.19819251466121
3.725,2.761893141207027,-5.491669529098631,-47.57380829435649
3.75,2.838756161012973,-5.024495848299433,-49.69061379564064
3.775,2.6482348655688686,-4.468755350445816,-51.59798876498543
3.8,1.8697149177286068,-4.086156068049334,-53.39727725152898
3.825,0.4635366155076288,-3.9405864304256726,-55.21723406346124
3.85,-1.189212880818234,-3.7884736096672436,-57.264622080136405
3.875,-2.5713316568484683,-3.3615632125201036,-59.679188228318736
3.9,-3.3882196931641713,-2.784675413768237,-62.526059346059
3.925,-3.6805370750096844,-2.4341720065178665,-65.8248175833346
3.95,-3.7175629457206956,-2.4692707735901545,-69.48094078667707
3.975,-3.8340551535744765,-2.8070359212837412,-73.3757957430331
4.0,-4.272390421165896,-3.3015296654303508,-77.37986051730876
4.025,-5.135843121973757,-3.810689245168082,-81.36276414605203
4.05,-6.409728804078274,-4.287620299896451,-85.26609626075525
4.075,-7.884222107976993,-4.707343001841875,-89.08708882316135
4.1,-9.165442605172245,-4.947596992339424,-92.75972916507942
4.125,-10.03665015620429,-5.113824427986345,-96.14091099350665
4.15,-10.643359639870088,-5.53414327696523,-99.18982982309572
4.175,-11.217240761762346,-6.265566392651176,-101.95488802547278
4.2,-11.778740452476605,-7.12957428220942,-104.36983475019164
4.225,-12.116221868534877,-7.931752576170301,-106.29171426440641
4.25,-12.069297188103661,-8.500617237603668,-107.71504095981784
4.275,-11.636883441841904,-8.682108074162805,-108.68780084931997
4.3,-10.900341864359797,-8.501663892008029,-109.17593745171861
4.325,-9.956734701999622,-8.146943305711023,-109.15727509157156
4.35,-8.872262186665857,-7.700476685923787,-108.70095939587334
4.375,-7.763913021538517,-7.073752722376393,-107.92311770867097
4.4,-6.830002042661931,-6.181760952608825,-106.94261040310701
4.425,-6.123397176317289,-5.005093066399868,-105.82230963207046
4.45,-5.468156785244519,-3.5590884371336524,-104.60173985323395
4.475,-4.679236318642412,-1.8896048274917163,-103.3626705270887
4.5,-3.737717652595642,-0.07172737525888037,-102.28651216542468
4.525,-2.761029769711995,1.8276356805121448,-101.55107541774096
4.55,-1.8852278584197413,3.789653543476215,-101.21540222941995
4.575,-1.1852981974811816,5.800484358152415,-101.19493050158982
4.6,-0.7272337825496713,7.79859608801624,-101.40815106422778
4.625,-0.6002473918320635,9.662859250337652,-101.87315934166413
4.65,-0.8290066209686552,11.240665451621426,-102.63640874952725
4.675,-1.2900169110156074,12.4960623642117,-103.71814031668335
4.7,-1.7453640334301133,13.569838296250598,-105.08134496065473
4.725,-2.0008636681793606,14.640802203281927,-106.6555459242147
4.75,-2.032835212019292,15.734095170394754,-108.42278490988303
4.775,-1.9008500778515276,16.755851186841177,-110.40642248879985
4.8,-1.686527696423274,17.60724443794769,-112.6309576684197
4.825,-1.5195792227632354,18.240093023506123,-115.01858199485612
4.85,-1.50771359907122,18.79898774136195,-117.36078502848841
4.875,-1.639967658492284,19.49650579524531,-119.52298169800852
4.9,-1.8477164311263115,20.2851683410429,-121.64164106267458
4.925,-1.9960876692638148,21.292742145588818,-123.86707220289601
4.95,-1.9593035611298297,22.759212570387216,-126.1172735435761
4.975,-1.7480759656670402,24.789522523421265,-128.20199379139976
5.0,-1.3974801146820115,27.234885920184553,-129.99915372926387
5.025,-0.891510220547085,29.613331486586024,-131.44824080291696
5.05,-0.1712806672414123,31.468750962838627,-132.49129467491954
5.075,0.8096229158655917,32.53233397772094,-133.125269853595
5.1,2.0610906166902545,32.70801657159731,-133.4298935768617
5.125,3.4633472977717163,32.01887657528874,-133.5273497796042
5.15,4.710559197142708,30.473691227587036,-133.48483691141
5.175,5.5560004055138,28.10185280429382,-133.2170325324286
5.2,6.104661428986336,25.153197770988,-132.55443691817288
5.225,6.543410385685479,22.022331967531763,-131.38176708537878
5.25,7.017838591561917,19.148759921761446,-129.722201498136
5.275,7.604591943017193,16.645802993797027,-127.64041898750266
5.3,8.263628509572559,14.410827373048749,-125.22516033605662
5.325,8.858165578002692,12.466151406969683,-122.56088019626294
5.35,9.274188238821182,10.991103657027844,-119.55574059539155
5.375,9.455575907805274,9.990888705283767,-116.04376405903388
5.4,9.4633032572271,9.313390877268677,-112.10998830915429
5.425,9.524160483518854,8.915718065640108,-108.09225147811858
5.45,9.829512919668629,8.85395673161661,-104.29929142962527
5.475,10.18930042840795,8.935971148275216,-100.77275336830924
5.5,10.212587659850744,8.954239252687433,-97.38527107278335
5.525,9.813494788681098,8.998241723370873,-94.14972156018504
5.55,9.139175951934348,9.233218494428119,-91.16551833958961
5.575,8.193925264673704,9.602767822165783,-88.52772507791761
5.6,6.94120239607569,9.953561790234698,-86.31085833729877
5.625,5.683980253408746,10.191265698964331,-84.39505176361605
5.65,4.840247264016395,10.22281680343886,-82.53432841978285
5.675,4.499396619963909,10.143469592202612,-80.56223997544438
5.7,4.4494853751973835,10.150407177290122,-78.580183344437
5.725,4.436268377505613,10.203966558887972,-76.7579434540026
5.75,4.268352733653871,10.248232011296867,-75.06935667803855
5.775,4.06177734184283,10.347154357541841,-73.3028247161003
5.8,4.022811577780961,10.460133734865428,-71.3702617955173
5.825,4.176806742548876,10.492928333572513,-69.28668583525535
5.85,4.40193750786976,10.370307121644514,-67.10209001568535
5.875,4.553153403523572,10.060942007658547,-64.90922888307473
5.9,4.623847311906181,9.608495469431789,-62.84137931867918
5.925,4.723921611146556,9.097747382246485,-60.969902847727695
5.95,4.874117420520527,8.612197546040592,-59.25345996562043
5.975,4.99324211544458,8.145732063694789,-57.62077498916698
6.0,5.029448064346955,7.535889890526855,-56.076511910626905
6.025,4.945584140494704,6.632432766569384,-54.77611391740394
6.05,4.5102788536022915,5.492460172053406,-53.841343466078946
6.075,3.5342559483306326,4.388835344500759,-53.16981020929015
6.1,2.2317450399926715,3.532616406502045,-52.62294506229084
6.125,0.9368613580782719,2.9234818481823277,-52.09029188408478
6.15,-0.11027606486775283,2.4419525634071695,-51.48679920623115
6.175,-0.7471841299893749,2.0215671253830023,-50.829714476302335
6.2,-0.9609428777709448,1.6770422464363473,-50.18619280859043
6.225,-0.9346514176334833,1.3964209336597622,-49.66160831560349
6.25,-0.9318282833578645,1.1648968959588608,-49.34449018435991
6.275,-1.132588315980557,1.0289606340419462,-49.193618579663536
6.3,-1.463685343237021,1.0776787641171293,-49.014846656339856
6.325,-1.6671150965491504,1.362595498770251,-48.66924546497717
6.35,-1.6779181153163247,1.8155265638734717,-48.119049539371794
6.375,-1.5712838922980505,2.3609516025617974,-47.41941497259113
6.4,-1.3746187208800762,2.9359768640346284,-46.69408833991944
6.425,-0.9705697054125262,3.4898787464388192,-46.002514518776074
6.45,-0.28943253619098125,3.9924286058558356,-45.33344044920827
6.475,0.46058845082694755,4.378807585690179,-44.74874034141041
6.5,1.1270865901666691,4.667543225956997,-44.38043363930103
6.525,1.7715981461707992,4.93698772083317,-44.26774582811951
6.55,2.3347923998186153,5.180942043632197,-44.32052341459643
6.575,2.604267063138929,5.409524833607177,-44.35417778223473
6.6,2.525148001489201,5.669894320433384,-44.194868711639316
6.625,2.343331210973927,5.990698212582011,-43.77533399470687
6.65,2.494987109132381,6.38208561503532,-43.11920117599763
6.675,3.08093148629856,6.755796451249239,-42.23906719435848
6.7,3.748195963670975,7.0220506744453735,-41.10190598024325
6.725,4.160809233327992,7.121983779842699,-39.69344113211743
6.75,4.354748716238708,7.046964844155575,-38.02297655471635
6.775,4.5461299302459235,6.7672977918952615,-36.23335439420035
6.8,4.754970600552108,6.297901707078629,-34.53822696944791
6.825,4.7886220368007235,5.693048300941516,-32.94219456924956
6.85,4.5542199669027985,5.0564166573090406,-31.25797495441322
6.875,4.244554044777193,4.516296743415666,-29.27538197023707
6.9,4.055750132235898,4.0657947626001985,-26.861818469031306
6.925,3.9793236014659747,3.5886824041551253,-24.05920966894535
6.95,3.8954525187826556,2.963281427760365,-20.979928597632522
6.975,3.7694255881211114,2.1474711197071406,-17.79063426259551
7.0,3.666378307368102,1.1928724795411276,-14.596262023692313
7.025,3.567950471355258,0.15477580504148916,-11.37224013845537
7.05,3.348738149040989,-0.913691462427398,-8.085463315046287
7.075,2.8832252631963464,-1.972335124807476,-4.700113233931457
7.1,2.2210135047377646,-2.9697708184036142,-1.2705521504970314
7.125,1.5545926254328613,-3.8208788473446496,2.072511824068755
7.15,1.102041999139854,-4.462613692611156,5.410906047921
7.175,0.9143012898821891,-4.947305526986265,8.931975453368858
7.2,0.8975313896136626,-5.427466720001649,12.649184923630001
7.225,0.831828702823318,-6.036897834092888,16.479312700033528
7.25,0.5843835127825889,-6.7219098384265505,20.31146099021816
7.275,0.35894909323994506,-7.271153896499087,24.055931917232382
7.3,0.36033351212277764,-7.541479012787839,27.75454788914857
7.325,0.4300321180956287,-7.563155746896913,31.531553259549998
7.35,0.15509374127551454,-7.557627846104371,35.42350998929694
7.375,-0.6880222780949985,-7.734049869612633,39.24101369751021
7.4,-1.8156093679763694,-8.048313526345305,42.72156898875553
7.425,-2.7352304933763194,-8.346489687660824,45.81541720527433
7.45,-3.2477595329747904,-8.64833509126659,48.66020738176143
7.475,-3.29390877567092,-9.108721368078552,51.206126427333075
7.5,-2.7290956369277293,-9.690261713035884,52.932711483599775
7.525,-1.7886965162997024,-10.221333382232675,53.746972318659324
7.55,-1.1170985089605836,-10.67658409392279,54.316989917490794
7.575,-0.9017611891298086,-10.854785622593106,54.92036593959823
7.6,-0.8081233762689505,-10.493400694156378,55.41104209923188
7.625,-0.5667306855390899,-9.603086751981325,55.79798841618676
7.65,-0.09486400810506442,-8.424203737326613,56.14750395665333
7.675,0.7401364195982177,-7.291464473228605,56.509961308802126
7.7,1.8075583312830845,-6.306656615538426,56.91854780994446
7.725,2.7757004543994013,-5.356427323673018,57.38338089649432
7.75,3.5255297296393033,-4.388975292664154,57.83397421764065
7.775,4.117869529270966,-3.391658904261063,58.15365108343982
7.8,4.601512095635496,-2.2915716109588007,58.301960363247154
7.825,5.016609187570425,-1.1427618154516928,58.357855180241145
7.85,5.3043611229405165,-0.22858269838541703,58.38525091350439
7.875,5.354346599889779,0.27484455830525434,58.38336542476571
