Time [s],Flexion(-)/extension(+),Supination(+)/pronation(-)
0.0,-0.7501131751253374,0.6790884474277815
0.025,-0.7770791547363495,0.6643930703624361
0.05,-0.8118488796308229,0.6454824832502499
0.075,-0.8364326462242933,0.6377982239884057
0.1,-0.8451643461157661,0.6531922660083586
0.125,-0.8473268585423998,0.6692278918347901
0.15,-0.8529100253061538,0.6609886895608098
0.175,-0.860355509756504,0.6384342974474411
0.2,-0.8633561255982535,0.626559055023929
0.225,-0.8657335949567271,0.6300034641193571
0.25,-0.8754527301518539,0.6275270081770825
0.275,-0.8873132205876504,0.6115958265993215
0.3,-0.8914998443298293,0.6013045583126099
0.325,-0.8902447985494497,0.6009047181029958
0.35,-0.8850730005475157,0.5987926169733221
0.375,-0.8755463640717305,0.6032072564979046
0.4,-0.8706614041001164,0.6276162548520227
0.425,-0.8798711837612114,0.6511050271788827
0.45,-0.8974289924019141,0.6675623512199919
0.475,-0.9064808105339915,0.6867148500992052
0.5,-0.9024207610781654,0.7039822864113828
0.525,-0.8919097602515683,0.7185536675124895
0.55,-0.881735652071181,0.7424075635812389
0.575,-0.8708968340139795,0.7761347363874009
0.6,-0.8548338665584138,0.8029305808640548
0.625,-0.8308321084307069,0.8224873405512799
0.65,-0.7984255770833523,0.8411536685568616
0.675,-0.7607937846277725,0.8576085748671506
0.7,-0.7253334168502726,0.8748986473857956
0.725,-0.6984129869462268,0.8975655630583218
0.75,-0.679691435229228,0.915756825034227
0.775,-0.6664220343509466,0.9271987998741889
0.8,-0.6567693027468061,0.9446324542141273
0.825,-0.6497668312069667,0.9705994641206726
0.85,-0.6478545941216066,0.9973500081833955
0.875,-0.6512699032428714,1.0205826892871963
0.9,-0.6553828935544284,1.0357155427435987
0.925,-0.6797048726037443,1.007483214026178
0.95,-0.763794102720436,0.9027410860175693
0.975,-0.897844541710704,0.743612765650121
1.0,-1.030052962352313,0.5359598572411839
1.025,-1.1445584833146476,0.25643689664380653
1.05,-1.2859240531769796,-0.09552310863399481
1.075,-1.5159628536795045,-0.5191775452162312
1.1,-1.8392649351538204,-1.0331402016757685
1.125,-2.2463023233206942,-1.691842164379968
1.15,-2.7443329973669544,-2.656732898035459
1.175,-3.30798672943228,-4.007489024450995
1.2,-3.816688427061782,-5.4817602555904
1.225,-4.03512981548351,-6.560344286041027
1.25,-3.7154506679433,-6.842391904124497
1.275,-2.74045265877117,-6.217395262361192
1.3,-1.128057266949217,-4.740601980900528
1.325,0.9683610566297525,-2.5748993035710632
1.35,3.3183886077324543,0.21815901084369949
1.375,5.801288379688028,3.7276724025929853
1.4,8.445372228347797,8.042380873576619
1.425,11.265411935087245,13.019048249711188
1.45,14.051300288095723,18.218954796164283
1.475,16.398129747359384,22.986212493586493
1.5,18.070505330877634,26.874316365512243
1.525,19.145543607939405,29.871539310572384
1.55,19.791911403887454,32.09343040738284
1.575,20.18969073907287,33.71239978501627
1.6,20.52226651499503,35.107470858432144
1.625,20.92939366984064,36.92676725543372
1.65,21.471849003421998,39.569588172942
1.675,21.96324758848048,42.36543134739636
1.7,22.330395087028293,44.376602948927605
1.725,22.597149007721335,45.11327167958352
1.75,22.654775605192246,44.30006198735304
1.775,22.315380025083602,41.98883495191981
1.8,21.501184995071267,39.06714514152339
1.825,20.503607650370014,36.98648702358517
1.85,19.67886394643324,36.2671178134766
1.875,19.010804720577514,35.90070039921414
1.9,18.545003391668647,35.196843867900874
1.925,18.538588339894115,34.41043852876468
1.95,19.063202561994128,33.71225286388548
1.975,19.841208775443327,32.88799443385319
2.0,20.23481063751349,31.31067700986649
2.025,19.634324913242416,28.605237046854224
2.05,17.90787763658179,25.50488701827305
2.075,15.257496815434447,23.429232441750983
2.1,11.691879735171208,23.16214659250026
2.125,6.74212486428318,24.65999209548934
2.15,0.20365174013670756,27.943872063340944
2.175,-8.05045259101753,31.58767268642079
2.2,-17.583531522239426,34.130779090506756
2.225,-27.476210551297548,35.84844778540881
2.25,-36.81208061408451,38.05707708502208
2.275,-44.92393247611839,41.55326377770453
2.3,-51.61549428788051,45.128383685079406
2.325,-56.97195967798603,47.08298996179464
2.35,-61.30443261593357,47.067135096188125
2.375,-64.96693927400347,45.75960124687473
2.4,-67.91678976249315,43.94747719097541
2.425,-69.34019308347276,41.65678399679495
2.45,-69.193837173617,39.36644351488564
2.475,-68.31877853352705,37.48690639137889
2.5,-67.16667526954339,36.24101066486028
2.525,-65.93045840367792,35.701766026064334
2.55,-64.75922999547248,35.5567608539451
2.575,-63.76775907585331,35.50694882481942
2.6,-63.210725566394075,35.18407535589864
2.625,-63.398353678254956,34.22198830585186
2.65,-64.30079375317221,32.735782063233536
2.675,-65.55704023710196,31.202316451771697
2.7,-66.73076592997711,30.16436409964251
2.725,-67.7316175095627,29.853818042841375
2.75,-68.52809458460659,30.179634540221077
2.775,-68.85642506203634,30.503695174951
2.8,-68.55858673282374,29.92231620040385
2.825,-67.51642061501889,27.95843972299587
2.85,-65.49029826519369,24.474362453871553
2.875,-62.41595075404933,19.295215093866382
2.9,-58.545451505463916,12.307946757534275
2.925,-54.13105558042503,3.7487363516820076
2.95,-49.51786139859775,-5.478595514425994
2.975,-45.17060494952917,-14.88365087161037
3.0,-41.66353742492312,-24.825456359290754
3.025,-39.293762294285656,-34.93039083880558
3.05,-37.574741694021704,-43.76560015008696
3.075,-36.00055441601613,-50.70902406697903
3.1,-34.57269127838316,-56.341948853542476
3.125,-33.738554272947695,-61.73335838337734
3.15,-34.055914197631296,-67.78154382891452
3.175,-35.37436595526755,-74.08132590948678
3.2,-36.54689350931504,-79.00249103108091
3.225,-36.41863359530215,-81.25916809708531
3.25,-35.046669408836564,-81.31730137692323
3.275,-33.28376155606103,-80.47724058256817
3.3,-31.425783246584846,-79.03484101327277
3.325,-29.24054278508006,-76.80313188783397
3.35,-26.82626486798978,-74.19219110137475
3.375,-24.563642965840003,-71.85444977446943
3.4,-22.754220505337425,-70.01365401670472
3.425,-21.516914645807354,-68.40402465485757
3.45,-20.919340676134382,-66.95954046196844
3.475,-20.92677210265311,-65.79001971771605
3.5,-21.213274097265213,-64.493381996941
3.525,-21.37201270459645,-62.38764102483573
3.55,-21.262140046831966,-59.331888492659644
3.575,-20.901164467889657,-55.748877473097004
3.6,-20.315904612027715,-52.068377401781255
3.625,-19.721426766788813,-48.52342617276749
3.65,-19.19458310244297,-44.781285709740914
3.675,-18.573741897866288,-40.123079945943594
3.7,-18.050487179074818,-34.3373196584927
3.725,-18.2921509574822,-28.198621634239956
3.75,-19.99089268808161,-22.97596200624113
3.775,-23.118689927822548,-19.087831102913455
3.8,-27.09182960018612,-16.21619085798008
3.825,-31.136761005516203,-13.979142667878177
3.85,-34.26273193803248,-11.981325736642766
3.875,-36.21606072139478,-10.616288373982783
3.9,-37.50204018529652,-10.421263198447768
3.925,-39.037240621874616,-11.796966451798443
3.95,-41.415739046542704,-14.359885172419908
3.975,-43.96564564733913,-16.59327931967263
4.0,-46.31850496351109,-18.548742727497167
4.025,-49.00391257257308,-21.714798465149865
4.05,-52.032308190984814,-25.649144225536947
4.075,-54.450053530713255,-28.243037124744564
4.1,-55.68770404790819,-28.584636815597413
4.125,-55.92225119441978,-27.03003694388744
4.15,-55.344339749212715,-24.24880883298537
4.175,-54.01611076811303,-20.900458469125223
4.2,-52.18798096967084,-17.633464881237657
4.225,-50.335274227190155,-15.247171622540737
4.25,-48.66968634111504,-14.087742837887566
4.275,-47.19730995477366,-14.088714839693377
4.3,-46.13724805225614,-15.40490334299948
4.325,-45.639732302058555,-17.81931784958207
4.35,-45.70382450255587,-20.723590802025676
4.375,-46.29083423363368,-23.38317825754209
4.4,-47.33518385863067,-25.089601823774483
4.425,-48.87590666298899,-25.587498612772247
4.45,-50.848620700370574,-24.96699331088838
4.475,-53.07707397119442,-23.573094680497032
4.5,-55.48995069059167,-21.875992178795737
4.525,-57.97497961223458,-20.00076726210441
4.55,-60.34671111209127,-17.75409488028067
4.575,-62.598370476955985,-15.16060399374407
4.6,-64.74615363211139,-12.38637799489523
4.625,-66.72486113112735,-9.583814998100147
4.65,-68.52364534523106,-6.927374640084791
4.675,-70.13865712593892,-4.31328087564643
4.7,-71.61517803011223,-1.4893794871110424
4.725,-73.02214469374695,1.710985034804771
4.75,-74.30582964619875,5.3967490162751055
4.775,-75.51605260964551,9.413510206433113
4.8,-76.80933117578158,13.29919363880827
4.825,-78.25485018941548,16.699274180890395
4.85,-79.78443780610921,19.645699804050455
4.875,-81.49053131084926,22.434945113155873
4.9,-83.60580886427164,25.416264886615885
4.925,-86.12220190296597,28.64786397390262
4.95,-88.91336225588182,31.954156053985315
4.975,-91.80699438017028,35.0365483915306
5.0,-94.56169829048025,37.851415961783715
5.025,-96.86680584664559,40.516772970505485
5.05,-98.5817061578387,43.08317516900941
5.075,-99.89673731577379,45.683400658664766
5.1,-101.02091716267302,48.65311852040283
5.125,-101.90513308157135,52.00127224149988
5.15,-102.30216317256851,55.106153519117335
5.175,-101.80727584078548,57.408922323468474
5.2,-100.20108282474713,58.7210180229152
5.225,-97.7127340472479,59.19252860924692
5.25,-94.94727143340545,59.33105796552123
5.275,-92.29003614591024,59.20759945896749
5.3,-89.4999483906162,58.57889396715235
5.325,-86.28363710524742,57.27513441493572
5.35,-82.5185715872666,55.2617885206314
5.375,-78.0403451105245,52.445957241683345
5.4,-72.73070688541401,48.6710410291781
5.425,-66.64969338632085,44.24444186294529
5.45,-59.96752144287503,39.653157843305316
5.475,-52.93620448623862,35.144239543141616
5.5,-46.065779996122714,30.715435031845004
5.525,-40.15990692933003,26.015835112589635
5.55,-35.8357910683708,20.817094174717766
5.575,-33.07482872322412,14.910330951172309
5.6,-31.682800315944842,7.777592744234907
5.625,-31.780470890280533,-0.5188210466531696
5.65,-33.50082848009368,-8.69606946946174
5.675,-36.54058339291489,-15.001917825436935
5.7,-40.41238264848531,-18.53346746116307
5.725,-44.83905730460322,-19.79358554010962
5.75,-49.71338350680814,-19.847767369984453
5.775,-54.88904060584718,-19.826219689931055
5.8,-60.03754055084865,-20.86652036391074
5.825,-64.75458525432616,-23.93569395049751
5.85,-68.82630361562101,-29.03997267712129
5.875,-72.10307079852227,-35.08763667838493
5.9,-74.12837362114152,-40.65423883842904
5.925,-74.47362804726853,-44.86850014933913
5.95,-73.5274288625358,-48.062211529451936
5.975,-72.12403456653838,-50.926876471624176
6.0,-70.40128353749903,-53.23346659499496
6.025,-67.5985290705326,-54.68096452931769
6.05,-63.30119418659749,-56.3788129661744
6.075,-58.158052322007286,-59.817608514984066
6.1,-52.90224285979044,-65.10893549331117
6.125,-47.07686545935938,-69.98166149873346
6.15,-39.498019710926506,-71.1114196418376
6.175,-29.951371665359847,-67.28898974949524
6.2,-20.94951444995325,-61.42164445273249
6.225,-15.652232879049473,-56.903858299646195
6.25,-14.201136945577764,-52.85200867004273
6.275,-14.37073592926039,-46.9626080471987
6.3,-15.390846268558679,-40.34183747525762
6.325,-18.47601758928092,-35.59069452345829
6.35,-24.191449109329916,-33.464759185918666
6.375,-31.33969109658998,-33.377941471891916
6.4,-38.22207597547984,-34.183609802263994
6.425,-43.68436827545721,-34.44292200404606
6.45,-47.66938881836498,-33.72181586330884
6.475,-50.81221483894055,-32.90327958895533
6.5,-53.64807737028285,-32.96975094947783
6.525,-56.2629868248133,-33.760827513522884
6.55,-58.455088959229435,-33.92104899449024
6.575,-60.26034041739256,-32.61720505941287
6.6,-62.14719543005583,-30.683570631426672
6.625,-64.4881592074089,-29.059330858646817
6.65,-67.16832295210902,-27.648817761804153
6.675,-69.81582627101803,-26.101080472059046
6.7,-72.03215655688801,-24.496408856832968
6.725,-73.55815817361429,-23.295481038053612
6.75,-74.34385230479002,-22.861931525793104
6.775,-74.31637722185546,-22.907939024918214
6.8,-73.16503507687938,-22.723942563939747
6.825,-70.57403036128667,-22.151830796537617
6.85,-66.36244363667339,-21.49811454776892
6.875,-60.60408483088312,-21.101841863591925
6.9,-53.94305206910168,-21.690281884166676
6.925,-47.431838083983436,-24.27729976946087
6.95,-41.92927177923162,-28.995142359381337
6.975,-37.831869826152705,-35.038462523650196
7.0,-34.696433190628504,-41.31027024281567
7.025,-31.450794811614575,-47.12266665244555
7.05,-27.181658847884172,-51.88450021212725
7.075,-21.79484109531182,-55.287429456490855
7.1,-15.928366177485303,-57.39512464356271
7.125,-10.646142913400624,-58.064315967610355
7.15,-7.336854419545352,-57.205835543912386
7.175,-6.862208271912829,-55.68579468052471
7.2,-8.530930460186461,-54.25446758647548
7.225,-11.004262452998782,-52.09453942894246
7.25,-13.22440301411295,-48.650620037580396
7.275,-15.096386690007845,-45.167025423849594
7.3,-17.093656861643233,-42.58445778602714
7.325,-19.42262824681946,-40.28441288397535
7.35,-22.266111552260416,-37.74543890050477
7.375,-25.742791510366516,-34.641352818335804
7.4,-29.61120510333934,-30.190012199562837
7.425,-33.47152244458426,-24.294593848538923
7.45,-36.96049922285058,-17.779541027976542
7.475,-40.142168600276875,-11.580641931101072
7.5,-43.56845798348805,-6.107404838506476
7.525,-47.44289588660188,-1.0969932692931066
7.55,-51.52019391035756,4.072116303514655
7.575,-55.558981288193706,9.533229844753428
7.6,-59.43970146385199,14.831075355254349
7.625,-63.01273835664356,19.478586171525357
7.65,-65.90774005379744,23.076785846329425
7.675,-67.81348029191263,25.199347249167957
7.7,-68.64654026597206,25.37777690304939
7.725,-68.32165339068416,23.786038280458285
7.75,-67.23838448581132,21.80100842037555
7.775,-65.86664089634728,20.233568287615117
7.8,-64.04631473305783,19.310499163349522
7.825,-61.38835432935346,19.1298932114012
7.85,-57.88147019670858,19.074874715246587
7.875,-53.83555895126194,17.97995876548882
7.9,-49.63838422314346,15.195949764081195
7.925,-45.68528871174742,11.466953413727113
7.95,-41.59172390486208,8.87120755909119
7.975,-36.06718134144296,8.712407692207025
8.0,-28.616837321593522,9.667585966596977
8.025,-19.572716636192027,9.819851475988909
8.05,-9.706045681799967,9.008507594960093
8.075,-0.4438047418899938,7.794322852018681
8.1,6.978115351491574,5.378010833534165
8.125,12.164745815006754,1.2625694240487122
8.15,15.381236305878662,-3.7171618528157233
8.175,17.089845384441354,-8.171024902467547
8.2,17.940700450842478,-11.040554758902207
8.225,18.374463935307098,-12.020975859400984
8.25,18.56301756896843,-11.74250332791891
8.275,18.68837324527758,-10.98942456332153
8.3,18.74931870742972,-10.35668650807787
8.325,18.556750742200627,-10.202811908289414
8.35,18.16865178848276,-10.32900428386883
8.375,17.81217042666243,-10.316836749853525
8.4,17.487839606301016,-10.286511855105093
8.425,17.120185296918724,-10.67959608525187
8.45,16.66434797105251,-11.602818889076342
8.475,16.14576334664955,-12.6732674657815
8.5,15.701394062399359,-13.54306061174802
8.525,15.40118459146688,-14.336091052504518
8.55,15.017831787374,-15.399820927531918
8.575,14.158386919043197,-16.843735987075387
8.6,12.880893866896688,-17.94736482268149
8.625,11.745506692039386,-17.972212180959097
8.65,10.879073091551675,-17.772896241149297
8.675,10.373643759128182,-18.172022777817332
8.7,10.319587083163668,-19.017695627902167
8.725,10.60580035336291,-19.63230746151057
8.75,10.948810711074227,-19.31352267003529
8.775,11.128881055933071,-17.751572293009055
8.8,11.170358804701204,-14.609672316484291
8.825,10.924133585329521,-9.498896693839429
8.85,9.618549342297912,-2.754347631778237
8.875,6.196418613511912,4.47843063432137
8.9,-0.09899513014001804,10.078967178550322
8.925,-9.2273130910969,12.320814916381881
8.95,-19.689033776094465,12.153455051413317
8.975,-29.444714651221812,11.663069531288258
9.0,-37.49583482880454,10.994424880565807
9.025,-43.7582947021644,9.942455019771884
9.05,-48.28000188735987,9.252171695470032
9.075,-51.330407032975735,9.294184044725657
9.1,-53.18914426435836,8.947553107475429
9.125,-53.973069412938486,7.356310278861039
9.15,-53.73202455499199,4.987133067999201
9.175,-52.65545533101847,2.966836886710093
9.2,-50.76948522557088,2.66900040878469
9.225,-47.416363151165136,4.061681897450215
9.25,-42.39251313606564,4.203065703108014
9.275,-37.18810604984727,0.2957512574820709
9.3,-32.89453953391021,-5.798173701386104
9.325,-28.765671176919575,-9.153396756606405
9.35,-23.416615434591662,-6.0330811563491915
9.375,-18.130582169497977,1.5760048085980638
9.4,-15.947904294365232,9.512391377467923
9.425,-18.07436591376748,15.783712774663547
9.45,-23.711290598119465,20.57916539179388
9.475,-31.132170359381856,24.521860486152946
9.5,-38.82658184708399,27.289003105050412
9.525,-46.028849019060445,28.011274175079524
9.55,-52.37892563820059,26.78521653596386
9.575,-57.70090148350979,24.71557581359585
9.6,-61.929227736278946,22.564140382701197
9.625,-64.91034589333559,20.72488053171632
9.65,-66.45721086246964,19.204980828948692
9.675,-66.57217175553515,17.346072357865303
9.7,-65.43444652242863,14.242993685655376
9.725,-63.22022963855668,9.693923049577265
9.75,-60.04155371982479,4.521962011336239
9.775,-55.96300347944609,-0.33103574177995854
9.8,-51.01624974094252,-4.797144534905451
9.825,-45.30169082581707,-9.187100295028234
9.85,-39.16448071050175,-13.371449176151478
9.875,-33.22048473803684,-17.476112446178544
9.9,-27.991195084393148,-22.284371629417933
9.925,-23.768573590768757,-28.24788134980809
9.95,-20.544609034258247,-34.910591653971174
9.975,-18.07779225263986,-41.172743127478256
10.0,-16.063264886509756,-45.86778970505197
10.025,-14.219783988533898,-48.10637324261997
10.05,-12.200668430515046,-47.618862678542314
10.075,-9.932328592988986,-45.3030877874797
10.1,-7.973070451529427,-43.03343805135947
10.125,-6.61882115368076,-41.797854234526525
10.15,-5.343500666015698,-40.85174408915299
10.175,-3.6351849596697536,-38.91785617953852
10.2,-1.7124642212699663,-35.78294450682972
10.225,-0.1073473336318411,-32.45849351541264
10.25,1.0740198114252486,-29.795022547839345
10.275,1.8932050724006195,-27.984848735165087
10.3,2.2919637951787677,-26.623382402790938
10.325,2.128530375799343,-24.948981021659936
10.35,1.382876636153499,-22.29607865663898
10.375,0.18521090717660374,-18.82457511364421
10.4,-1.1821159400439916,-15.42943853361694
10.425,-2.369851658951079,-12.885089734834365
10.45,-3.3953436816407887,-11.435420983335673
10.475,-4.439931092107401,-10.595994690031374
10.5,-5.451527983881142,-9.399539280458521
10.525,-6.319810710313484,-7.366913153181102
10.55,-7.177331973086701,-4.844611095765579
10.575,-8.224021773349772,-2.3072585431159958
10.6,-9.53171844538594,0.12250216862300298
10.625,-11.035886210275361,2.413175119516208
10.65,-12.473629068147623,4.517510936166563
10.675,-13.547146227614313,6.636588814309618
10.7,-14.319774913638994,8.635770678287276
10.725,-15.008281317763373,9.527367176814712
10.75,-15.454590983493015,8.572893834394893
10.775,-15.128754848060206,6.769531563589934
10.8,-13.797544498342289,5.8460153485434185
10.825,-11.761703405409571,6.43355725088951
10.85,-9.374977130017026,7.887667456947442
10.875,-6.34326830487444,9.665397117522508
10.9,-2.5614373930894185,11.802686340666586
10.925,1.0570480347684215,12.870730680849995
10.95,3.8183890499856776,10.498204607816788
10.975,6.155704121961659,5.4431129798765765
11.0,8.749089390597454,0.9854055714698172
11.025,11.82526115350935,-0.5788509923377495
11.05,14.798765827659766,1.045258211142781
11.075,16.63738772889269,4.498212331316333
11.1,17.36252997112264,7.958601947276773
11.125,17.651027861526522,10.406611451475689
11.15,17.657860374273966,11.354093538275214
11.175,17.067293060085444,10.762980020899777
11.2,15.866866750360447,9.46445875157336
11.225,14.38902900620338,8.503358012662952
11.25,12.980809181378087,8.551193304615657
11.275,11.690793751383602,9.818009589623124
11.3,10.122362869493877,11.793789349832865
11.325,7.87109558620038,13.610348909399905
11.35,4.901888589900531,14.74459209656812
11.375,1.4201708492495644,15.280835334748579
11.4,-2.476460104046968,15.59430180471666
11.425,-6.892615189163417,15.998233944710794
