Time [s],Flexion(-)/extension(+),Abduction(+)/adduction(-),Internal(-)/external(+) rotation
0.0,0.924091752301767,0.4077281926837625,1.4170273109848264
0.025,0.9638414378082385,0.4062018950225367,1.4148661297490754
0.05,1.0060498198133132,0.408657382957625,1.4018429605857126
0.075,1.0282299249674376,0.41959318348310837,1.3734345522611335
0.1,1.0378003830933789,0.4397555729931726,1.3358515693031294
0.125,1.0501438494722666,0.4644293274665349,1.3079651124934522
0.15,1.0714043317413142,0.486384625810234,1.3018027812342456
0.175,1.0975821314421448,0.5012437715875532,1.3085971557258906
0.2,1.121268727310123,0.5096549292794275,1.3182548893029247
0.225,1.141224278602383,0.5177729123658865,1.3265909458303677
0.25,1.1635797953538372,0.5268666396738719,1.3316136228359192
0.275,1.18978214012015,0.5283868170676523,1.3422682725691084
0.3,1.2048263337972813,0.5231429901088341,1.347593906234059
0.325,1.2106068800549625,0.5206166874417792,1.3394283225332635
0.35,1.2088316963936938,0.5332277848672614,1.3146841192993244
0.375,1.184699395851278,0.5600880823803682,1.2843490564122855
0.4,1.138114649275957,0.5857747525696161,1.2745830114052956
0.425,1.09142489413865,0.599403189204294,1.2894488373342077
0.45,1.0719996157138474,0.6024857372937836,1.31684901344467
0.475,1.0853282938284554,0.6029953982684574,1.3413581669515013
0.5,1.116550048314934,0.6039958643774138,1.358372642911334
0.525,1.146900952230807,0.6105959880487939,1.361437834591696
0.55,1.1699705316661608,0.6183455248920215,1.3453295516332036
0.575,1.1870749438470236,0.6177288380665166,1.3204455384692901
0.6,1.1975951260190916,0.618779946361197,1.2939951832811303
0.625,1.2040626032549824,0.6309728136089504,1.2737138621080923
0.65,1.2172597040718607,0.646865078095794,1.2658604699893867
0.675,1.2399005953172977,0.6563592546021226,1.269119839320146
0.7,1.2689613585219426,0.6595689099219474,1.2775245794050025
0.725,1.2986989868631673,0.6622721353112099,1.2795056434266987
0.75,1.321946897594871,0.6693177976853524,1.270643539182911
0.775,1.332159186422243,0.6908979595712801,1.254353543902435
0.8,1.330896672029424,0.7251873291133002,1.2339216416672016
0.825,1.334008960346678,0.7500131255911473,1.2157020219516996
0.85,1.3461606344084924,0.7704563877391818,1.2006280583566171
0.875,1.367282565180647,0.7961640447792143,1.180136810404937
0.9,1.3941348555223905,0.829237064643856,1.142933783615436
0.925,1.4303020584371657,0.85464157352067,1.0837180871403895
0.95,1.4953418785937531,0.8413342362869083,0.9727582320778388
0.975,1.5927538103250787,0.7917685646629943,0.7815926737903924
1.0,1.68399428377691,0.7308575734711077,0.543605113864517
1.025,1.7690643948924045,0.6426879495093265,0.2964499745937917
1.05,1.9011388642686362,0.47612186830514547,-0.002102644643448464
1.075,2.143515447982329,0.1956372079787904,-0.42596664748121693
1.1,2.5106669759644515,-0.18572535299686857,-1.011381277036967
1.125,2.9742441928227508,-0.6540789638380513,-1.81321458160276
1.15,3.5136280481653404,-1.2453486100238818,-2.854499968622368
1.175,4.139596497030816,-1.9948331695784705,-4.008490591656435
1.2,4.848276723780757,-2.951960121431925,-5.12183344624574
1.225,5.578762622782245,-4.307085457483142,-6.16429154391636
1.25,6.270899464094359,-6.308857987364481,-7.2271042674470065
1.275,6.944301173965435,-9.002736704198053,-8.349031284141738
1.3,7.601120428200212,-12.162991233431756,-9.404931606441123
1.325,8.128367674293097,-15.447013046059904,-10.196192721323968
1.35,8.459806959401355,-18.658543415043933,-10.638112522540935
1.375,8.596121016687345,-21.867158384069793,-10.918245279888188
1.4,8.477811726424264,-25.25889723577623,-11.39423545031197
1.425,8.007392649968729,-28.988338883651746,-12.282139045446106
1.45,7.185058372262825,-33.098164499664094,-13.526736255648236
1.475,6.091252224670163,-37.407252986260005,-14.898525067590803
1.5,4.84268857785195,-41.61782328028501,-16.16550532418158
1.525,3.543829642205494,-45.49689249157575,-17.22942688199936
1.55,2.0512328761596867,-48.95639668892159,-18.16351264680677
1.575,-0.01827670061814144,-52.08275924133318,-19.054931732340563
1.6,-2.9704610545763876,-55.01488259850258,-19.856906810916964
1.625,-6.840512167303611,-57.762533074412815,-20.503623129366428
1.65,-11.361492588206966,-60.17150233199062,-21.112845481818347
1.675,-16.112627871359713,-62.04032048638157,-21.693464967695416
1.7,-20.631074560228644,-63.162313396485416,-21.932278618276868
1.725,-24.638691826350104,-63.39604716174655,-21.581601302943696
1.75,-28.14849905680175,-62.793099908576295,-20.72696004755269
1.775,-31.399765973123355,-61.466174538640836,-19.676468591540225
1.8,-34.74328495183883,-59.52296823279487,-18.844039543598818
1.825,-38.60496033698348,-57.03704457299404,-18.68619104378159
1.85,-43.124739425402716,-53.88633409796741,-19.356367573397655
1.875,-47.863458788668126,-49.757033103228565,-20.43556537960322
1.9,-52.25533453606552,-44.50142990708788,-21.121564126610966
1.925,-55.55387546724291,-38.29293507417598,-20.9476468080472
1.95,-57.217789869834554,-31.678828570744823,-19.860026159040267
1.975,-57.45996888073201,-25.29972031540424,-17.388400591969056
2.0,-56.68188868071114,-19.476486756918522,-12.484092768697955
2.025,-55.228882511657,-14.482709753654927,-4.68540560802801
2.05,-52.937479670867425,-10.434828377142242,5.219724514703182
2.075,-50.51832636267191,-6.814623811019603,15.773912049626388
2.1,-50.3173902891514,-3.833632886285871,25.60372987206087
2.125,-52.57166789054427,-2.6200958671639976,34.20076689975821
2.15,-55.478266251152846,-3.573433301418961,41.58114352146682
2.175,-57.66933515835866,-5.971420361913302,47.06808164816937
2.2,-58.31977238984057,-9.017165222593844,50.82283091864602
2.225,-57.79731069952528,-12.090251536077151,53.37666473597776
2.25,-56.93070480985311,-14.52345988665967,54.53262840150223
2.275,-56.35769107683542,-15.999932005879382,54.0843130798013
2.3,-56.13030702902644,-16.818111788732566,52.893341576578926
2.325,-55.95697165820877,-17.616791825419,52.142360540001945
2.35,-55.57559595502356,-19.009148369146022,52.24820460803231
2.375,-54.88439747697576,-21.533799241504823,53.18093644512448
2.4,-54.25619110942765,-25.155848622243063,54.93855533151523
2.425,-54.18445382688094,-28.87403916851518,57.7545315509418
2.45,-54.79894573275436,-31.694000127954038,61.09416712579472
2.475,-55.96421016343403,-33.243540406848666,63.46896449898665
2.5,-57.511866301940614,-33.89695718720787,64.19270997068449
2.525,-59.251518874533815,-34.48334723612015,63.916389064
2.55,-60.7949338257224,-35.51784591688319,63.53177321844203
2.575,-61.73681193422861,-36.86391431867471,63.163230297371
2.6,-62.158917311408494,-38.20590005507047,62.53574879139151
2.625,-62.440742528945115,-39.392804831364764,61.68557551192613
2.65,-62.55111150731121,-40.04054693921147,60.52890054985282
2.675,-62.01969255591129,-39.44787727699488,58.74522349479717
2.7,-60.564998644294484,-37.42162695613984,56.31368240811526
2.725,-58.29690948771139,-34.61708580039838,53.609175604715816
2.75,-55.58356963419281,-32.07788426906753,50.954148859965784
2.775,-52.583322556413584,-30.319343858766317,48.39897155577352
2.8,-49.1961442112796,-29.13629287314434,45.80862869580424
2.825,-45.32156347201307,-27.97607262666748,42.85886198149805
2.85,-41.18876933949182,-26.49887533419663,39.279142809930875
2.875,-37.092490381088595,-24.64335843077702,34.995969374741186
2.9,-33.096772702825824,-22.383397409005543,30.08606150417344
2.925,-29.163362231413736,-19.690783532439664,24.73710213069632
2.95,-25.375171873551807,-16.598627145388885,19.130815624224017
2.975,-21.883899373491154,-13.302795756555152,13.612725995366798
3.0,-18.66323033410385,-10.105550210597704,8.843905043869084
3.025,-15.815893129255086,-7.220491483654176,5.193916874768313
3.05,-13.703576397515054,-4.9439526216498235,2.2101570327316673
3.075,-12.441575430755638,-3.727809150096937,-0.5274005890825723
3.1,-11.642977700042572,-3.7214091962927274,-3.0143096585888753
3.125,-10.845152289886371,-4.730377613885575,-5.452065605725478
3.15,-9.812014723815906,-6.541640039696233,-8.33542355932853
3.175,-8.608203125581912,-9.005432639488046,-12.012126488196238
3.2,-7.502133979874042,-12.07161266261331,-16.807147754095425
3.225,-6.82784350966979,-15.71397267057012,-22.96253996674331
3.25,-6.951167338354347,-19.671411710918207,-30.011095367841747
3.275,-8.03125943077186,-23.736336110573845,-36.883324626549324
3.3,-9.743283590651933,-28.054685935978615,-42.79257986528602
3.325,-11.674933859691727,-32.863769059222356,-47.3669139643499
3.35,-13.688477946574631,-38.10211636028554,-50.41081410342497
3.375,-15.650775277886392,-43.29889919057566,-52.05700704211763
3.4,-17.417831147471787,-47.77123394517317,-52.81736569761262
3.425,-18.89473703895129,-51.13719218692313,-53.31107692551599
3.45,-20.040092172708317,-53.477725637111256,-53.815136501252915
3.475,-21.03718641203269,-55.078431125355436,-54.25419842205257
3.5,-22.32149940156599,-56.298956302382344,-54.57214160206704
3.525,-24.028559818215495,-57.4043280799436,-54.82464056744015
3.55,-25.922375778639093,-58.368025728692835,-54.841742042903896
3.575,-27.767528451417615,-59.19445633398075,-54.19443608602965
3.6,-29.358385112381928,-60.116212757365176,-52.609114626470905
3.625,-30.313149550477426,-61.25536664943722,-50.01454386337892
3.65,-30.324578359719812,-62.45039710958893,-46.5007829233392
3.675,-29.49597273445462,-63.54472794298903,-42.58301780595567
3.7,-28.000726858773977,-64.40383234605993,-38.78112168309687
3.725,-25.85177983311687,-64.72472725140963,-35.157197309135576
3.75,-23.13882475895183,-64.32807190647323,-31.843004379527688
3.775,-20.20456405038594,-63.331832610422836,-29.475070296011193
3.8,-17.503455218831224,-61.82617870183843,-28.443329645388445
3.825,-15.471795533598412,-59.70540421391543,-28.572112975565215
3.85,-14.423127217357171,-56.8341659027927,-29.60280834739214
3.875,-14.659831304256107,-53.37001881480919,-31.289120615046237
3.9,-16.44989870317626,-49.920170041109884,-33.543186498160495
3.925,-19.403308371577737,-46.977877287382974,-36.24354902762795
3.95,-22.410994886569668,-44.191735910598894,-38.93956003379523
3.975,-24.722513430151672,-41.04469907661905,-40.69316625061695
4.0,-25.88847373443306,-37.89885458576463,-40.15881894251377
4.025,-25.486446874699002,-35.3593029408362,-36.9122034736029
4.05,-23.81521013216428,-33.381388039653324,-32.18232480278677
4.075,-22.034878151446417,-31.6668443388135,-27.95878676209237
4.1,-21.08545682828919,-30.240063206191063,-25.428150954830638
4.125,-21.168230337065577,-29.31459345393351,-24.54374803281648
4.15,-22.317767949151875,-29.127228518493535,-24.8374655159619
4.175,-24.461471862448185,-29.806931650603392,-25.97641862131736
4.2,-27.15642124696533,-31.211347445788554,-27.676901865557237
4.225,-29.693500548576512,-32.94854189983679,-29.511646323235833
4.25,-31.516291141229395,-34.58846249209689,-31.155586368390555
4.275,-32.55939598735451,-35.88017999299051,-32.48309704789737
4.3,-33.054724230505144,-36.82825277937627,-33.43923083303297
4.325,-33.2446235138116,-37.62045329912941,-34.15498824756115
4.35,-33.55276370988212,-38.364637007371655,-35.11979175051993
4.375,-34.3467942222675,-38.895239127089425,-36.73584748688114
4.4,-35.634967459728784,-38.988348365602185,-38.9652936499364
4.425,-37.12099301545943,-38.778964210822885,-41.50458978900486
4.45,-38.41811782448773,-38.681645629958005,-44.03906675518198
4.475,-39.34048370784443,-38.993983097887686,-46.42140138145365
4.5,-39.957018403116365,-39.670809128105276,-48.76696018829086
4.525,-40.326673944968476,-40.478517848539276,-51.240582238229855
4.55,-40.4383711622351,-41.26499396608866,-53.792860798053546
4.575,-40.24074124457474,-42.00434408876806,-56.160891419576956
4.6,-39.59843427635845,-42.79465626150467,-57.96798061092506
4.625,-38.475729133618174,-43.731870998664974,-58.98366656712614
4.65,-37.04954166083228,-44.87777242778391,-59.27370393620496
4.675,-35.63100221292207,-46.21830359073564,-59.162327060280795
4.7,-34.43046304662765,-47.62388107650141,-59.05773784022125
4.725,-33.596049852971746,-49.015124390205564,-59.08073484368848
4.75,-33.19955415178387,-50.47973173977861,-59.220420055125096
4.775,-33.25170059077543,-52.17585878051205,-59.4281940803886
4.8,-33.58454430559994,-54.067035890363655,-59.388231765952334
4.825,-33.68743138025083,-55.852748716821274,-58.75329635025061
4.85,-33.008617297532666,-57.214202838985194,-57.63118967939904
4.875,-31.375063101893844,-58.0541735594527,-56.41500028491014
4.9,-29.028622786914738,-58.447256552661024,-55.353749266541584
4.925,-26.36828777826762,-58.6332658979113,-54.54919747096175
4.95,-23.70307020577125,-58.912121643192684,-54.07829157950037
4.975,-21.018743563116768,-59.37099632759987,-53.77479096635628
5.0,-18.082410611886854,-59.89027943829654,-53.165662949413964
5.025,-14.909947403291577,-60.339317142602305,-51.87946743102237
5.05,-11.87030584407678,-60.674671823345754,-50.25443363441817
5.075,-9.296605325907272,-60.80035060184091,-48.99624373291899
5.1,-7.137795634104756,-60.53992787793936,-48.255831998153454
5.125,-5.100351480219078,-59.87745825090474,-47.67111205069716
5.15,-3.2236848075041338,-58.89755727079885,-46.756146259449345
5.175,-1.7833131684033636,-57.76142189194548,-44.953127788012765
5.2,-0.792010069617349,-56.80541115370744,-42.05886645907932
5.225,-0.02561646700629398,-56.23690295589833,-38.514686850575266
5.25,0.5760756138730135,-56.01129424612775,-35.14977864535058
5.275,1.1894050766561968,-56.152648606605645,-32.41431099064468
5.3,2.0521417561363906,-56.77365914162081,-30.12801628016174
5.325,2.9663030040852316,-57.83244087460604,-28.340948333155364
5.35,3.4575023298655294,-59.11794768060183,-27.607048222639396
5.375,3.2857758484369497,-60.46088945035744,-28.076883703211575
5.4,2.3753957979956146,-61.65332910501759,-29.31733984726164
5.425,0.7568015282590033,-62.47906999815801,-30.985896583059855
5.45,-1.3835349239972539,-63.05788055743451,-33.01504840572514
5.475,-4.15311215610445,-63.73046669749878,-35.58504920867426
5.5,-7.8517296972801445,-64.53059030615191,-39.27492107455571
5.525,-12.319973410358836,-65.10827095603196,-44.38111055504895
5.55,-16.523178610801757,-65.15594995257644,-50.00995929943944
5.575,-19.397118320677674,-64.63837460734494,-54.706013828131574
5.6,-20.526629765226286,-63.68861502307061,-57.324809307189334
5.625,-19.998896326314252,-62.495766759143166,-57.48986478346417
5.65,-18.539016002278434,-61.43277727614078,-56.05612947048641
5.675,-16.979687829366952,-60.79447298727007,-54.55274454474588
5.7,-15.562975000419856,-60.4821667326306,-54.13527929200895
5.725,-14.085224961731077,-60.34670188961483,-55.08438337674139
5.75,-12.414018188015499,-60.261267253062236,-57.02398371881825
5.775,-10.50391710660436,-60.03368731567862,-59.03034818643186
5.8,-8.458574360040501,-59.444946107106254,-60.19076717920488
5.825,-6.557902212316688,-58.547861100208465,-60.19996299453596
5.85,-5.13141379064789,-57.715640071680944,-59.42477864817791
5.875,-4.365134622248971,-57.149533583212516,-58.55612711816023
5.9,-4.273027341670529,-56.96896492524965,-58.27643593903835
5.925,-5.07808652186777,-57.22126105889149,-58.97815139696217
5.95,-6.901975950312414,-57.31815983099759,-60.417688678927945
5.975,-9.326435599559717,-56.39279145178115,-61.826584379835786
6.0,-11.850086602692176,-54.01461670082759,-62.670432774191625
6.025,-14.359563549293698,-50.280175628682244,-62.67740172909912
6.05,-17.175612078748618,-45.509925142018545,-61.447423896242164
6.075,-20.507127119824165,-40.407689055549746,-58.985920427181185
6.1,-23.750644143931968,-35.60000562571235,-55.525570311187344
6.125,-26.24547882744829,-31.2531569850593,-51.12668472332596
6.15,-27.593103035721324,-27.312373059641555,-46.019802815128095
6.175,-28.153211718825844,-23.570350059695766,-40.35887237719148
6.2,-28.057218894924127,-20.15673581599876,-33.13371301749198
6.225,-26.878664969030964,-17.053897691954838,-23.780843760511445
6.25,-24.938931030004888,-13.821290705437661,-13.906269854527748
6.275,-23.651327734824058,-10.58806513853465,-5.405036210434622
6.3,-23.99668586001578,-8.458439553648564,2.045044347202953
6.325,-25.300611465554628,-8.160552163127441,10.133099581151487
6.35,-26.912573253555227,-9.407470301354271,19.02554529928296
6.375,-29.461777883955968,-12.013008184479926,27.248968866717604
6.4,-33.03202800543918,-15.30666633053925,33.585413574816656
6.425,-36.88333871332408,-18.137972236546428,38.3081217727576
6.45,-40.62199237234307,-20.097824235817285,42.240296863381424
6.475,-44.40167104745682,-21.4262824900222,45.899518089852585
6.5,-48.14947902427203,-22.577134952138746,49.80698892961417
6.525,-52.02550120050857,-23.82882704379269,53.600051464740396
6.55,-56.11874904546619,-24.867493851763705,56.04649360000968
6.575,-59.47078283990872,-24.978175618982153,56.62239361528714
6.6,-61.175705194701195,-24.23759424550163,56.0268157428032
6.625,-61.3175451369611,-23.424025009237464,55.13852636089275
6.65,-60.61638998708278,-23.028759529059442,54.19907850038917
6.675,-59.6687724251927,-23.195596861215108,53.38632499429259
6.7,-58.50458731667485,-23.581709116255194,52.782515845277764
6.725,-56.84523908897639,-23.646379673325093,52.129862728677686
6.75,-54.19472434245601,-23.043453361895875,51.1772889942122
6.775,-50.379983281588636,-21.8123989634345,49.58725920202761
6.8,-46.19765151869913,-20.182865728517527,46.732088608227336
6.825,-42.41463367733325,-18.059910663871268,42.04660093536501
6.85,-39.077892929525504,-15.289632687116482,35.24664552459065
6.875,-35.720054650335825,-12.208404199123574,26.537942526505525
6.9,-31.985196967529067,-9.637846992642007,17.014461403365708
6.925,-27.92509355420039,-8.312289426881328,8.318141782911315
6.95,-23.902315490693976,-8.214163534885898,1.7792822186547637
6.975,-20.328447120559343,-8.789418514822527,-2.1847059521148515
7.0,-17.24925074029772,-9.810270789694426,-4.210692356603993
7.025,-14.679425056601088,-11.24613260933113,-5.478914102901151
7.05,-12.801436274539212,-12.952495152795638,-7.148001265775851
7.075,-11.660604281365103,-15.292017271712876,-9.923486988313273
7.1,-11.13976851053165,-18.61492746183702,-14.117878059151739
7.125,-11.063603971813066,-22.184653094493274,-20.025296295824116
7.15,-11.135424276192936,-25.242488429327196,-27.431183252549612
7.175,-11.191029481498381,-28.270490456459406,-35.53887967510957
7.2,-11.74949121667557,-32.54238737053877,-43.70559584223753
7.225,-12.970607202882743,-38.73454611899886,-51.4505547597339
7.25,-14.260409832641574,-46.11880981875312,-57.562337626677284
7.275,-14.794372635204805,-53.22360098961939,-60.75544348473
7.3,-14.389593314118697,-58.89574610655797,-60.90274131441349
7.325,-13.787258223283013,-62.61178117460704,-59.02837558147845
7.35,-13.919521666467316,-64.50610835573458,-56.672466081827025
7.375,-15.453637181065496,-65.30805323111163,-55.26668786694071
7.4,-18.2479465796161,-66.01036844543842,-55.57223025467955
7.425,-21.38978137886659,-66.9760574124334,-56.97414577310685
7.45,-24.05351157742346,-67.91049003573578,-57.99533096075322
7.475,-26.001530510555327,-68.64705797558128,-58.009646661212756
7.5,-27.22837318064091,-69.22117167490593,-57.567799063512666
7.525,-28.262699178713422,-69.51868820667242,-57.480387774148475
7.55,-29.93455304721654,-69.38651459923581,-58.35562903210984
7.575,-32.369149434036416,-68.78218475864266,-60.400097734552624
7.6,-34.85945293224793,-67.77849791469463,-62.92346978912457
7.625,-36.59953628436518,-66.56084028818826,-64.70353213980802
7.65,-37.03643139609665,-65.56044313551354,-64.83520887219125
7.675,-35.75291451041722,-65.31397122260888,-62.96233913473972
7.7,-32.887985057139,-65.8307544846961,-59.25889523008303
7.725,-29.327396723308517,-66.52491104795443,-54.63973742538024
7.75,-25.82969356412846,-66.7483549855391,-50.42750540173328
7.775,-23.138454838340486,-66.19855525000067,-47.52182129669164
7.8,-21.805441993484326,-64.64911389155212,-46.07230268130102
7.825,-21.656985454409426,-61.88703684288301,-45.5964393190527
7.85,-22.138490803825334,-57.96292854892965,-45.62023309946732
7.875,-22.565596303335663,-53.112798284137575,-45.84153216032775
7.9,-22.598449172561068,-47.76945894642335,-46.204516630807916
