Time [s],Anterior(+)/posterior(-) tilt,Lateral tilt left(-)/right(+),Rotation left(+)/right(-)
0.0,-18.41412994283931,-6.511791780864016,2.3577537810701386
0.05,-18.93552371920665,-6.513924654867438,2.3988573481076143
0.1,-19.323366299150656,-6.471773587856945,2.4632483115989907
0.15,-19.467211636495204,-6.472713410827131,2.5615218429664037
0.2,-19.442685159018435,-6.447348826786716,2.6442610712628185
0.25,-19.283350308647986,-6.415210201387655,2.668132508791569
0.3,-19.17514259737131,-6.3418930655948085,2.654205879805514
0.35,-19.022804180966812,-6.297339599169728,2.6288335744788385
0.4,-18.830351088232966,-6.261258582857965,2.5305531079320382
0.45,-18.64187278179308,-6.259025512401379,2.4546020571740725
0.5,-18.471988910781157,-6.245731942489235,2.427054616903602
0.55,-18.284517803864507,-6.250012839748462,2.4489240626673148
0.6,-18.013848349936065,-6.290301344647642,2.418290098840707
0.65,-17.634382579471154,-6.3468639993690426,2.336451125581855
0.7,-17.33352711301999,-6.390762493648739,2.240642315656628
0.75,-17.084643270464614,-6.486445123223619,2.2722346369746362
0.8,-16.83612886178577,-6.569363706436148,2.2689573202081106
0.85,-16.596557284234542,-6.631858714613595,2.3116830438966534
0.9,-16.39977162585733,-6.6776408156000375,2.342451551903312
0.95,-16.289900003287404,-6.717227210480106,2.396376079213897
1.0,-16.162418762303112,-6.7530028386211045,2.4333826733407604
1.05,-16.049087742777782,-6.792520147220539,2.4536264060192137
1.1,-15.960710065568179,-6.830125676708318,2.5046617833136513
1.15,-15.819455090888212,-6.863366546224046,2.556820850744184
1.2,-15.73991873389982,-6.912670529962746,2.584809487838034
1.25,-15.703434848904125,-6.97783237209721,2.587377000517366
1.3,-15.664833814131775,-7.041323794800817,2.6180193415782873
1.35,-15.568651406382708,-7.100235698473597,2.5907762580839395
1.4,-15.45591380544643,-7.175723409234832,2.6763921906995045
1.45,-15.384300395951673,-7.249134272267481,2.7239413618539707
1.5,-15.299125723433253,-7.3344102056923335,2.7898838262733445
1.55,-15.190346863516007,-7.412236313990978,2.841798255814445
1.6,-15.109606879970361,-7.472971436005879,2.8894538376269465
1.65,-15.08726444166063,-7.526757109553231,2.901150022200673
1.7,-15.12016732608785,-7.571143629426701,2.9143639137992694
1.75,-15.132188276948597,-7.606791008460475,2.93244820253324
1.8,-15.12676037490539,-7.645118348667237,2.9565627389820466
1.85,-15.215828887078658,-7.666015716611817,2.9436666722740163
1.9,-15.269719515115375,-7.710809854318903,2.9226216656671156
1.95,-15.152388848212095,-7.760615093619814,2.91769803757431
2.0,-14.996653233418188,-7.79127568492417,2.8459913861832846
2.05,-14.84531873572993,-7.8166164221735865,2.902164774714317
2.1,-14.762258833553382,-7.83796073458814,2.9364204208184645
2.15,-14.712159232792931,-7.858504701409176,2.9440534217822063
2.2,-14.676441519157851,-7.845613151267765,2.911115491388937
2.25,-14.704706577749777,-7.808622277877081,2.865680217466086
2.3,-14.721503819180896,-7.76164079826506,2.8570378666998746
2.35,-14.721189387564243,-7.699671961796617,2.8381692620973342
2.4,-14.699002233555099,-7.619028295728595,2.8399354636865928
2.45,-14.679780635377757,-7.532095206113482,2.833560016558641
2.5,-14.724163615869086,-7.430563636460696,2.8215080987216523
2.55,-14.790730750251901,-7.347013153364237,2.784658203779452
2.6,-14.792887742219103,-7.281110737479471,2.764432581981042
2.65,-14.806095493617786,-7.188653117618885,2.7165128908578136
2.7,-14.839797704473042,-7.102483178203788,2.775553346556761
2.75,-14.896611720601788,-7.070173202663365,2.8122805267070254
2.8,-14.907181176125581,-7.048846513787269,2.8467005288733582
2.85,-14.874759909133639,-7.017224948265387,2.858455745274529
2.9,-14.903094842001131,-6.995830962407207,2.886392282887816
2.95,-14.983645080822084,-6.9859284984076995,2.8958128782679022
3.0,-15.122741897149124,-6.964951434762706,2.881014616481929
3.05,-15.215295270924663,-6.923672884917129,2.90588947642351
3.1,-15.266083770508025,-6.905289883620647,2.9371285939116163
3.15,-15.202622115942958,-6.887802971535732,2.9407103208586305
3.2,-15.01189374245122,-6.858723274986517,2.898713864887474
3.25,-14.769758648804913,-6.825332941926098,2.876181172522317
3.3,-14.462702770256575,-6.790018138341539,2.867959572482257
3.35,-14.13649750651422,-6.77700322994756,2.951402265366216
3.4,-13.81555024212251,-6.811305407864892,2.979986547232121
3.45,-13.596106917610388,-6.834891756000305,2.9976342603394412
3.5,-13.467762993841918,-6.885915762380456,3.0175588672527396
3.55,-13.376612135799764,-6.928042488849701,3.0106405994118473
3.6,-13.292804242259892,-6.954149758200192,2.9627588744204605
3.65,-13.207108898113114,-6.966710207871133,2.9080084150511794
3.7,-13.114819531492866,-6.989689650689293,2.8889296536901834
3.75,-13.064947157100093,-7.02271790865404,2.9272202316603937
3.8,-13.074797971121551,-7.0602710643168685,2.984679399776946
3.85,-12.997155944019912,-7.115418525354042,3.028200025188311
3.9,-12.801204317336499,-7.140227643238477,3.0865899809041397
3.95,-12.57098762504833,-7.169345737077241,3.0285018072325482
4.0,-12.34053301684934,-7.193013563177909,3.07494994643938
4.05,-12.076514771633766,-7.177666178074678,2.9860388859398186
4.1,-11.532989952233272,-7.179053673539992,2.727766694434656
4.15,-10.860443560357147,-7.350266521557334,2.3275025325848695
4.2,-9.983317701393638,-7.88303871395501,1.9157436752634798
4.25,-9.296076495055669,-8.989021646247917,1.5183969250510052
4.3,-8.751412537851817,-10.268357737357324,1.1216734418688343
4.35,-8.479212948104484,-11.145539643233235,1.028273081296347
4.4,-8.623683058986414,-11.068998080648367,1.625191080104623
4.45,-9.070753807297656,-10.226740679867802,2.8612876626579635
4.5,-9.675554378840785,-8.975642691316759,4.53952561824548
4.55,-10.569815573847162,-7.644494917268913,6.4929037219872265
4.6,-11.79983812909691,-6.505903333251908,8.43448730357961
4.65,-13.213674158171004,-5.537413368224374,9.769121349954935
4.7,-14.016233573491057,-4.704441979754865,10.138864440966698
4.75,-13.631715040655134,-3.8076391972975894,10.0322136672541
4.8,-12.63467423133045,-3.217853029459566,10.158461894854598
4.85,-11.530318078705509,-2.7744051976641533,10.492975546795115
4.9,-10.365219899475303,-2.138597598908697,10.551995700522555
4.95,-8.551194097613557,-0.8619749059297993,10.926217738286025
5.0,-6.124979349558687,0.41013037141712166,11.34244250283726
5.05,-3.8135482966204206,1.255315501950978,11.846622568414848
5.1,-1.8530118774256763,1.6498116760738546,11.767899675202512
5.15,-0.3361991364915445,1.894605402258198,11.114081798752153
5.2,0.9475025810541056,2.0653229901977963,10.577519984495623
5.25,1.8289147440413682,1.96709764801171,10.43355602479279
5.3,2.366335664885776,1.7843129677746001,10.358080916109628
5.35,2.8316378210098643,1.8255311106430405,10.658642936438135
5.4,2.490546976056706,1.4855673484436287,11.001544994105927
5.45,1.5608101286165053,0.5767196981824554,10.851846960495278
5.5,0.03971868668682644,-0.5407510138760415,10.32102025291836
5.55,-1.1381025267967977,-1.2796654461939523,10.330818166456636
5.6,-1.9571658554026612,-1.2541472321260512,11.432391565007272
5.65,-2.881036526451771,-0.45489577368305395,13.646019985145678
5.7,-3.725143545755649,0.800252681462847,17.267773220492035
5.75,-4.3813164956179795,2.191230633992344,22.216768791284295
5.8,-4.89082463839212,3.802434717474561,28.480621997821178
5.85,-5.433379418050765,5.451942810609984,35.78684669802466
5.9,-6.459424968532373,6.542437199447036,44.08821780696292
5.95,-8.112786113407344,8.619338296282802,52.143087898745954
6.0,-9.235642404729713,12.214062555963054,59.69046446462953
6.05,-9.839436438813246,15.490714519001338,66.38896342460681
6.1,-10.157818419696074,17.147530722477867,72.15661274939072
6.15,-10.686517654975608,18.053485893481593,77.37569592438592
6.2,-11.997235668973563,17.992219502170308,82.20073499279792
6.25,-13.347936926394484,17.742422927741245,86.97542039328535
6.3,-14.158945043687158,18.64283012227969,91.8221249354839
6.35,-15.956601482297112,20.47365068284504,97.03785993499893
6.4,-18.597359643464376,23.62924356040853,102.53880083142151
6.45,-20.506109739024684,26.942733908209703,107.45214594347236
6.5,-22.018258125421593,30.119335526193122,111.7522560599409
6.55,-22.525765432381796,31.34433719923164,114.67336815016012
6.6,-22.393034910295878,32.17605523555415,116.31661444855553
6.65,-23.965473622069197,34.025710285080905,116.59521222248532
6.7,-27.006826533081863,35.67163527125974,116.06136817303248
6.75,-28.513899405832493,36.03984042611102,115.28022762098286
6.8,-27.73049773658946,34.7944613434269,114.6591143971539
6.85,-25.120089578171346,34.568809160799844,114.40326193825854
6.9,-22.244296001943074,35.446555480064994,114.66811909511593
6.95,-21.58999530722715,35.99157427036406,114.79976344306965
7.0,-22.494518704533952,34.428910492848686,113.50621369086926
7.05,-24.165967910580907,30.977723362363772,110.24803291376689
7.1,-24.731048909117234,26.25565269291692,105.8862475629581
7.15,-23.604066988554237,20.62361490149209,100.44751207315824
7.2,-21.696255831210063,15.400085877724843,94.06943884630148
7.25,-20.546988113387858,11.231830209845672,87.36706193431023
7.3,-20.778304041176266,8.830630589942306,80.7906625679005
7.35,-21.75106668773207,7.372440170564039,74.60681533275242
7.4,-23.21404402833366,6.649748952326243,69.37158922485011
7.45,-25.37237186130471,6.656207016226745,65.60277135934898
7.5,-26.080681284034636,4.255719860177495,62.993571766773975
7.55,-24.637960064195035,0.768622535983765,60.29840119762914
7.6,-22.6408045271824,-2.538217807413188,56.397887257357745
7.65,-20.32816176479761,-5.150645113659348,52.35606680309427
7.7,-19.613620883148958,-7.558873753406557,48.01743181543575
7.75,-19.93887338617619,-9.85179964923964,43.189365244279394
7.8,-20.36293314360543,-11.38827382162181,38.500359808380644
7.85,-20.32239106318034,-12.785595144023535,34.63599332408874
7.9,-20.249070685012267,-13.64628907656901,32.246670244345474
7.95,-19.929196088125458,-13.933217551257055,30.973652270047523
8.0,-19.598617913880748,-13.044252659595566,30.173890074213592
8.05,-19.317925952139625,-11.224362538654594,30.30949017181489
8.1,-19.46904183413523,-9.352370697159337,31.71853420953136
8.15,-19.33732615174658,-6.902646789311969,34.16670154692029
8.2,-16.615574677698294,-4.291706269884519,38.33136435589138
8.25,-12.698117485631256,-2.062460760243931,42.4148922743998
8.3,-11.111904429455086,-0.7166871104455667,45.38757252017697
8.35,-11.26793742203666,0.570647548273011,48.97101360568129
8.4,-11.239292984571723,2.1077498639861467,51.47524639054945
8.45,-11.159175105674858,3.0256539876312427,53.73152356211268
8.5,-11.631809720338138,3.351207257589877,55.600851812916176
8.55,-12.154233053648401,3.636856892400124,56.0568597877748
8.6,-12.81541369502491,3.8263063267477264,55.500866850007846
8.65,-13.676166317292942,3.782865465134695,54.51429726471644
8.7,-14.457086226467927,3.311585967671259,53.4331451929057
8.75,-15.5219526372653,3.138164804986473,52.09623416314652
8.8,-17.0282727925935,2.9854403304418122,50.845714858512984
8.85,-18.392562598102156,1.2954587495330676,49.306750157962796
8.9,-17.33025334665874,-2.0632675571970407,47.03603765753188
8.95,-16.542200024237026,-4.958943945986434,44.607269072535715
9.0,-16.85549748478886,-6.521801035369582,41.980196797062064
9.05,-17.141520440305452,-7.20748697361668,39.69553684491331
9.1,-16.71269961122874,-7.195991579364616,37.88067149122987
9.15,-15.968637099962331,-6.926344967522103,36.367498668429235
9.2,-15.740053834179998,-6.872492586091078,35.267318278641135
9.25,-16.133529067726343,-6.858953879034858,35.13281017121477
9.3,-16.243501046473725,-6.481602776838514,35.55218261925186
9.35,-15.901603350978073,-5.09514766573165,36.10303500064358
9.4,-15.298851339403175,-3.171042728000085,36.85794316033557
9.45,-15.566771130148531,-0.9062250667606097,37.52969209836393
9.5,-15.895707019035935,1.8113749638389487,38.49750566554289
9.55,-14.437841693841367,4.472083636070283,41.5114803373372
9.6,-11.481852126186462,7.0666749399605715,45.39358541072541
9.65,-9.434026233565467,9.886156830989064,50.25276537978318
9.7,-8.497187072972224,12.050991497728225,55.595820168260076
9.75,-7.716172433155756,13.520624932263223,61.035768258571075
9.8,-6.942763225803059,13.713286144200513,66.18051137392835
9.85,-6.947376392854616,13.258425371429597,70.58964844467641
9.9,-7.4055390021541,12.88221112675369,73.87782131628937
9.95,-8.1341850237943,13.17827606350242,75.88886314480865
10.0,-9.145367324519874,13.59698803302778,77.05518255513518
10.05,-9.895249198879466,13.499978207631,77.11233801226655
10.1,-10.557638169751625,13.523729656433797,76.36738110084876
10.15,-11.23752201985051,13.165514671123686,75.62944355981294
10.2,-10.621598345064406,11.205431137804569,74.80521506388827
10.25,-10.001004038009803,7.678812966445311,72.990713568948
10.3,-11.283476059275015,5.1019482590675596,70.57961931987906
10.35,-12.026575004950095,3.8723729176872896,67.73356367971907
10.4,-12.354145449499052,3.4743787672653164,65.29300820143408
10.45,-12.584721812108556,3.8572242323847505,63.34951459437925
10.5,-13.025163671064586,4.329872961143577,62.14450894168301
10.55,-13.873850400981384,4.7470740756504215,62.2773520842601
10.6,-15.02845027171523,5.663181396202262,62.7338935654962
10.65,-15.874478585403157,7.137780173135314,63.048545770684335
10.7,-16.837740016177168,9.319309272716755,63.74255964107952
10.75,-19.010394321372836,11.25872378051912,64.03253993501099
10.8,-18.818674500017906,11.746837059966184,64.48746271473416
10.85,-16.498068750360545,12.250857575932606,64.60266625280059
10.9,-15.019123040541185,13.606701709733407,65.43167648942283
10.95,-14.52771077622768,14.120587014245487,66.53411543916717
11.0,-14.195876688442057,12.933276796210853,66.44360001534923
11.05,-14.487627072425806,11.303102879633252,65.16347999506465
11.1,-14.728714595872718,9.457735560029482,63.66770709028572
11.15,-14.188348843649639,8.242206970912916,61.89144010549303
11.2,-13.223792821938437,7.3646310707857,59.95923041647835
11.25,-12.93822520946881,6.546169962713733,58.33320865214803
11.3,-13.77093400543315,5.34425840961598,56.50152616432141
11.35,-15.87703014330271,5.056899790100625,53.872866487775426
11.4,-17.19042663779115,3.556327631051217,51.884770216111335
11.45,-16.86622202806813,-0.5221499842102882,49.00916887818784
11.5,-17.40975592427287,-5.552077403971537,44.7749918091498
11.55,-16.54979581673826,-8.73197163207151,39.918123903555056
11.6,-15.219962460476458,-9.932430647440572,34.839551760133546
11.65,-14.992127896094736,-10.952070671368123,29.978843000810098
11.7,-14.56541589008276,-11.775955632313023,25.050799907603697
11.75,-13.888345210217182,-12.08514520559217,21.161130313109673
11.8,-13.318050611455915,-12.299534538795717,18.297732328670396
11.85,-13.648805526562901,-12.332853770213099,16.30863949731059
11.9,-14.958666590442036,-12.76127115693531,15.353400564377507
11.95,-17.527675615856367,-13.265716503940315,15.28165166513614
12.0,-20.064766944214927,-13.170782196469233,15.093594025261352
12.05,-21.888214236425906,-12.067111309004838,15.189871044288315
12.1,-21.692709183043522,-10.793216778984783,15.118959412584022
12.15,-20.79906058014308,-10.49542182094725,15.252421578540831
12.2,-18.774366188036453,-10.641098820189828,15.577745092539304
12.25,-16.385834320193045,-9.273438404323555,16.602974068436488
12.3,-14.241679173009947,-7.519089578371101,18.79232205183254
12.35,-12.5300654689728,-6.172825131837336,20.553461097290786
12.4,-12.09876407819047,-5.1961379824594385,22.017231118729587
12.45,-12.063752029927796,-4.260126419110603,23.662507168568936
12.5,-12.355032368673832,-3.4242118908113826,25.282667273899794
12.55,-13.402391553081873,-2.8721336962412196,26.63074236359968
12.6,-15.408565714717819,-2.8212296093872076,27.249309175582116
12.65,-17.736209866090253,-2.832896034732962,27.29799700380887
12.7,-19.63916537463074,-2.7048560352112525,27.036857532991075
12.75,-21.467718937301665,-2.4580812721685588,26.331077660317312
12.8,-23.261187630719142,-1.7829285042377854,26.356453769603707
12.85,-22.780111446748297,-3.153069981758947,26.100691907211765
12.9,-21.365933091401452,-5.5350479680826545,25.793413641850172
12.95,-19.651904455855476,-7.541206061264839,25.089917472393825
13.0,-18.304934310523375,-8.7185049458511,23.773823806147856
13.05,-17.666406250322336,-9.498465634177386,22.52502019757832
13.1,-17.593272943485108,-10.01448198475923,21.324972296668644
13.15,-18.13093765486533,-10.553278628329823,20.159585926355152
13.2,-19.053927495214108,-11.13639984426752,19.380967664456666
13.25,-19.643229608954417,-11.365661806884722,19.043252158037742
13.3,-20.401722755124993,-10.605177376926417,19.331790209114715
13.35,-21.739387943043234,-8.98746877474077,20.360744884648764
13.4,-24.130604353605655,-6.780791550992752,22.165789525365724
13.45,-26.58588948018042,-4.572589636289576,24.02227462074026
13.5,-25.86485725832641,-2.555838688201884,26.72525017364127
13.55,-22.2825439709697,-0.48813825409327666,30.110026354650955
13.6,-19.723215040370533,1.6275299306518736,33.402468810117405
13.65,-18.938845522020607,2.7277054668859253,36.65964111846882
13.7,-19.094599693353988,2.9813654900360578,39.502669199592276
13.75,-19.92416530781939,2.7636947642592773,41.570686901012536
13.8,-20.617167431747436,2.0385204066647127,43.26048164329199
13.85,-21.463081548239742,1.1404216980944852,44.28659174343077
13.9,-22.179173940888045,0.09652997678880708,44.89944397834709
13.95,-22.877693517064802,-1.1785888923542798,45.292131147043946
14.0,-23.15985448551256,-2.4193448072188803,45.468804553522894
14.05,-23.19938031657081,-3.883713819402684,45.5989512005646
14.1,-23.263164233246926,-5.943512514403118,45.56456890584409
14.15,-22.774319857685256,-8.558238471881022,44.5738290901628
14.2,-22.29687299615181,-11.089070938130376,43.260690357522506
14.25,-21.835848145005908,-13.33034069353494,41.92100401445061
14.3,-21.053305329609458,-14.947029429609687,40.39159130839567
14.35,-20.172789957630513,-15.96149615476905,38.93705920977477
14.4,-19.852435981320184,-16.93211308845641,37.88987995765874
14.45,-19.54502676981613,-17.813168518236736,37.41988176857208
14.5,-19.109994323866946,-18.350834469280528,37.42397777081757
14.55,-18.312363974488726,-18.80091412941722,37.48755836780009
14.6,-17.533960977185842,-18.955649999195895,37.462367713032826
14.65,-17.057366751229008,-18.791614941076386,37.696258772702585
14.7,-16.849391747618665,-18.333468432820943,38.255665202715456
14.75,-16.653681249596186,-17.530699094971105,39.037201582093566
14.8,-16.430060395896767,-16.5600548422183,39.9484603074381
14.85,-16.07534805900153,-15.479569418735878,41.20730136978986
14.9,-15.699604451768137,-14.350804507630684,42.59619006995537
14.95,-15.408787955460125,-13.329993314357788,44.11695194594857
15.0,-15.345028176972264,-12.523561376772482,45.681313685679335
15.05,-15.522363784785268,-11.812924709836079,47.225870288423
15.1,-15.887413018490317,-11.196705675582344,48.521492477322816
15.15,-16.176519896077096,-10.590789484656812,49.35363426579584
15.2,-16.265674943781498,-10.069679547140153,49.78928463641939
15.25,-16.07139158583087,-9.714708554461348,49.96096311215157
15.3,-15.785002920136922,-9.452320236584677,49.932038850011615
15.35,-15.545118962666853,-9.286710706344445,49.64882471448663
15.4,-15.460913075078885,-9.158475154361732,49.162266309763794
15.45,-15.614251401725621,-9.0269721002775,48.38591607608367
15.5,-15.900803709184034,-8.957699227286298,47.69460574922155
15.55,-16.176085213555517,-9.014878819368219,46.78230827777323
15.6,-16.212460570468608,-9.182342457838383,45.67514508901578
15.65,-16.1176905708624,-9.221929264262636,44.47349320948737
15.7,-15.948688109918068,-9.163918848692319,43.18385921136655
15.75,-15.700042717250245,-8.924121953146567,41.821491624998494
15.8,-15.128451130249971,-8.498646796389771,40.550924517888205
15.85,-14.5419239011455,-8.100099446827764,39.515312683029386
15.9,-13.87048159642878,-7.837901351209714,38.49472198242584
15.95,-13.32102634463481,-7.603637954945263,37.426099014668125
16.0,-12.8929295098464,-7.801039740499537,36.156271862301665
