Time [s],Flexion(-)/extension(+),Abduction(+)/adduction(-),Internal(-)/external(+) rotation
0.0,-0.7844670285396598,2.3080082814550362,-0.5481194356781732
0.05,-0.7242619761844711,2.3591677213921125,-0.5533167627315355
0.1,-0.6744650988683479,2.3727599284119196,-0.6200035140949004
0.15,-0.6339349543827932,2.385667750866471,-0.7009121500599734
0.2,-0.6008869132724312,2.409876314668462,-0.758343550767224
0.25,-0.5691372354979739,2.4296996751463635,-0.7941838549170842
0.3,-0.5278015902158956,2.447265468938645,-0.8260715017479558
0.35,-0.5311394323904083,2.4601247947758917,-0.8292829258730864
0.4,-0.571763017510293,2.439508678699128,-0.8194019129623188
0.45,-0.7688759710950193,2.416849726576009,-0.7997457819288148
0.5,-1.1703946256420317,2.4420945709765585,-0.7269781343341852
0.55,-1.675980453944377,2.5436031178222938,-0.5662339331348544
0.6,-2.197610828109881,2.584204124341811,-0.4767879251024354
0.65,-2.4731194968052934,2.4802419954240413,-0.6051346324453208
0.7,-2.601284646248121,2.244223028434328,-0.7396919078316477
0.75,-2.6529778037461806,2.0932300075961487,-0.49177657935259916
0.8,-2.748766408742457,2.2625718409033895,0.3696002385117604
0.85,-3.111670319646401,2.349739974722598,1.1640223677079067
0.9,-3.68536809998108,2.540163998978333,1.2863665384033753
0.95,-4.0876255977543385,3.180640197207868,1.5796138456740099
1.0,-4.106489083029686,3.6054963987565363,2.8193485237938227
1.05,-4.169295030874466,3.761032270405402,5.156916966986655
1.1,-3.670486718654929,3.404761050540686,6.90492060568606
1.15,-3.411371079538735,2.440091204661027,7.164827273022701
1.2,-4.569959549627528,1.5131141803265125,6.213040863174589
1.25,-6.627847718511322,1.3394530513085294,4.030119575380208
1.3,-8.741788598992647,1.5775981781251929,1.976051605510409
1.35,-11.440968820967154,1.5921894272740702,0.9425520331012646
1.4,-13.953134513115572,2.027055642383436,0.6454694994524302
1.45,-15.92392660848887,2.9426334293955656,0.9223790115970235
1.5,-17.37370474478147,3.9987822403559528,1.4190873214148896
1.55,-18.31074932455062,4.573670952798871,1.7652128086413974
1.6,-19.200088983413547,3.968241199466977,2.345818178068253
1.65,-18.941277087210743,3.8531009890748615,3.491595718950618
1.7,-16.992631265218996,5.472298265813088,3.6401215849426465
1.75,-15.45726416435802,7.054148274943139,2.1779806088293765
1.8,-14.638396790604311,7.801076759761678,0.514027454270203
1.85,-15.141707794787743,7.903083008542123,-1.5986975920190518
1.9,-15.085458391646798,9.207045626334544,-3.670709880430883
1.95,-12.260647060838561,10.526007278631917,-4.2369385396945365
2.0,-8.462800192785535,10.714010099357104,-4.536598718385535
2.05,-6.315220595529112,11.216404160236923,-4.9065872679760485
2.1,-4.499531868543062,11.005246768467206,-4.212741483819416
2.15,-3.0045153943656686,9.111835651112482,-3.059517025325671
2.2,-2.6042913833393375,7.522719769432979,-3.3186327363684938
2.25,-2.4812908332261854,6.70813610696975,-4.7820358330951676
2.3,-1.793278369348539,6.095466449759001,-5.8327124118072025
2.35,-1.2669638442149893,5.355106524808989,-6.04168199941112
2.4,-0.30437144556304957,5.262720739279524,-6.197944919148772
2.45,1.420009125687405,5.304826113732072,-6.751431260191473
2.5,3.8280435246444964,5.092617694347182,-7.040389093271765
2.55,6.150244461759179,4.74794858317512,-6.493579631998785
2.6,7.093942226052004,4.203896263564515,-6.194218931894598
2.65,5.3066431749964345,4.52721688779114,-6.769930744720583
2.7,1.0295579196405333,2.491016135500067,-7.102395141736321
2.75,-5.268984612681512,2.2521851550513916,-5.08613463257613
2.8,-10.87867192953959,1.7764507171879815,-2.6430555081612668
2.85,-15.438532743959774,2.8793458615931184,0.30411055965373035
2.9,-20.92883803638368,6.537352489240107,4.529355758423089
2.95,-23.847960278914165,10.759624834448509,8.766550121989685
3.0,-23.992068473116912,11.822331126631967,12.851483859034493
3.05,-22.44831459448219,9.997974347420154,14.512110733025075
3.1,-20.446167537149442,6.90122309673236,14.993780240742746
3.15,-19.032457729151915,6.262451373571238,14.638221144198674
3.2,-19.494026212929356,8.17015479038273,11.476747188800559
3.25,-16.079855574399975,12.236408948923684,7.8636241248285845
3.3,-11.652580839990057,14.329120512530125,5.539622446317765
3.35,-8.083095027129655,14.650339790148907,4.064163226639797
3.4,-6.223692790012501,13.739512784090113,2.572572584903644
3.45,-3.202347123232493,12.570921439040871,-0.2157026348442043
3.5,0.07751929984980899,10.362638508240163,-2.7887356756420383
3.55,2.6223221364669076,8.061282357620888,-2.809274144716391
3.6,5.243326826499937,6.431308453581477,-1.6711425284123262
3.65,7.55431070440719,5.348084345892757,-2.0769920862538718
3.7,8.966147359967154,4.875748879036339,-3.211057322504488
3.75,4.294555066539991,5.727592692070225,-0.45322462138670955
3.8,-4.821734408755315,6.158015617078227,2.383809092275156
3.85,-11.43385543053077,5.558981289209215,4.244188070296428
3.9,-13.815158995919493,5.859786548565537,6.842061408811994
3.95,-15.879058143944107,6.626835453997401,8.72528553801929
4.0,-19.102112942927143,8.108522416623568,10.747568029804352
4.05,-18.51830065841891,8.899593068087874,12.950334152593763
4.1,-16.697027009219767,7.197005364615302,13.915417304544535
4.15,-15.792969897508739,6.82976536081642,14.284859703050744
4.2,-15.055955258831382,8.919002350985402,13.43207546967656
4.25,-12.45219592755983,11.687793588123602,8.088658532150268
4.3,-9.680561221219085,11.983083092049936,7.616501307870162
4.35,-8.22943409710681,11.848784548199486,8.658184015861803
4.4,-7.297297773440567,11.017794591526416,8.395402050624945
4.45,-7.605281598023494,10.313171395986208,6.035625726254737
4.5,-9.491355982019844,9.851412434176545,6.4414466214305355
4.55,-13.339108313327692,8.100388698137282,10.565900690095381
4.6,-17.920299412065688,5.558040151013224,13.150311437317114
4.65,-21.92131242609869,4.818110871725695,9.083867396556368
4.7,-24.509877659009657,3.140037746798111,9.033479289165966
4.75,-24.199944967839755,-0.09868887156829198,10.548536577153781
4.8,-21.51161213490541,-4.192351274168873,10.574109448206935
4.85,-19.952063210827706,-7.468905622452695,16.384679051640152
4.9,-18.58341098597626,-7.582508266667086,20.248530157195855
4.95,-17.53129642793591,-6.881695385120057,18.938176810697485
5.0,-16.00332792722637,-4.264738579417468,15.9327898151568
5.05,-16.530872569088913,-0.724100515926438,18.332915946688406
5.1,-18.152932519770346,1.9507536204471807,21.672763498696796
5.15,-18.739817142958728,3.057792967775337,20.487776555623995
5.2,-17.605714660012744,3.927391196750308,17.343723471027626
5.25,-14.593002523715969,4.257615993176302,16.806630951170586
5.3,-12.163907623937348,4.754830506584731,16.53998453184697
5.35,-10.648083560624201,5.5053530005502855,15.320790524405417
5.4,-9.861225349960515,6.366940947960825,15.725013306287078
5.45,-8.310879191064572,6.223550041837201,16.065282788385083
5.5,-6.556660112671537,5.6825381089045095,14.900020938529165
5.55,-6.112842409032686,5.708762602698727,13.883490264768712
5.6,-6.20296817727943,6.354318668327758,12.929428839545624
5.65,-6.284688854344815,6.723994002583066,12.686906009109169
5.7,-6.39310561008219,6.668371353888894,12.685915328480977
5.75,-6.159834346573536,6.256193388420159,12.376978545120561
5.8,-6.329269031999338,5.454566002444293,12.527029623973231
5.85,-6.60346792319509,4.381571976553483,13.101175976339663
5.9,-6.609666991534874,3.7729631964325594,12.487439595978731
5.95,-6.802254197980833,4.054824778357596,11.594668909211181
6.0,-6.977295991505669,4.302709653109327,11.086042627326734
6.05,-6.8768421863213325,5.1121125802524885,8.370965973608136
6.1,-8.191390145118449,6.53388155528175,5.653342178579608
6.15,-8.103094782148101,7.611409491880826,3.278392845496704
6.2,-6.985272568948337,6.4673683355051415,2.2307799041807406
6.25,-5.816297331386384,4.450588724746781,1.566708253188062
6.3,-4.807453582872871,3.3228365747560145,1.1907942857967304
6.35,-3.252253250542076,2.830485786939494,1.7534907574942136
6.4,-2.6750432381187634,2.76775280222077,2.5651610772706506
6.45,-2.780974653012738,3.142633892836311,2.5026133386301495
6.5,-2.581007398830008,3.732772996635247,1.7670485406912904
6.55,-2.3465295658586416,4.086072570274628,2.506121948151979
6.6,-2.5298526853310546,4.26901468437504,4.495786312899314
6.65,-2.5565615361112126,4.191781840181087,5.171031905452334
6.7,-2.499277908487067,4.592374055865391,4.559818022085656
6.75,-2.6508672151028714,4.9331831564218485,4.249313972712958
6.8,-2.7730591536502454,5.289647126582524,4.928435157738434
6.85,-3.4218420205843834,5.652307360382815,6.291584036694529
6.9,-2.736839455329653,6.572244530831909,5.640262298486086
6.95,-2.669634675049706,5.357097083981423,6.153108087795144
7.0,-1.1707998545694591,5.308434599455535,4.85111434849354
7.05,0.32936600297647667,4.108960414378585,4.285899417763682
7.1,4.198664481870625,3.963057887257749,4.253888041467542
7.15,8.550770917443403,3.0435128842278307,4.556334258764957
7.2,7.55841213074349,2.6217356326073737,4.919720971029181
7.25,0.40640050728018884,2.9194631672482982,5.821015770489108
7.3,-8.260930923835714,3.300303677519794,7.381529658599894
7.35,-14.559279322276891,2.162835217719573,6.300871354470218
7.4,-19.712194987523887,4.052683655417837,6.439295489326587
7.45,-24.13598243289673,6.451142747613917,13.156976654194318
7.5,-26.813658943802825,7.380550364778871,18.05725934075078
7.55,-28.32861401332376,6.653200934565836,19.61024046261996
7.6,-27.897288829613046,5.236864420321271,22.56556517241094
7.65,-28.528542813291068,3.6492987449379877,24.589558155033654
7.7,-30.79258718477383,1.33377410427953,25.304368194644187
7.75,-32.22913126661564,-1.4039139362827096,25.185278700956808
7.8,-33.57764131647691,-3.26792488793723,28.346596557057733
7.85,-35.43820592291238,-1.3919919570501453,30.698762965233872
7.9,-33.82765174050231,5.074398387781111,27.461589073001836
7.95,-29.764855409382754,5.541182828791213,23.44213415532343
8.0,-23.60915820487171,5.557268800856059,17.302682999207008
8.05,-17.813256371791656,3.785423095452469,16.122284487635334
8.1,-16.418844549587064,-0.6772548400370054,18.203296160540265
8.15,-19.628867162102505,-5.526622734895258,19.231707678415066
8.2,-19.304601019416424,-8.486324237096783,17.92870091711542
8.25,-14.588299585187348,-11.22393238714907,16.90990070147565
8.3,-12.037450448000236,-12.791140068492737,17.516133086884473
8.35,-8.7125217349488,-11.827515092392982,23.72743604674137
8.4,-4.09845621228152,-9.434333375117214,25.658827645700956
8.45,-4.836915964456154,-6.352690654689438,21.48789933711559
8.5,-7.6766770335910985,-2.4095051102636336,18.43002676973988
8.55,-8.38946255629604,-1.082783784119576,15.348640121029847
8.6,-7.508843598276903,-1.4671898579778928,11.514701215109504
8.65,-5.657529488178689,-2.0110815324013585,13.511402431379997
8.7,-3.4806778307936694,-0.4981948698455868,14.909136645241238
8.75,-3.338959176408161,0.5823024530990778,12.93564925284258
8.8,-3.6424148010134756,0.5429602524114874,10.734353908680202
8.85,-3.249412070732843,0.45684155011426986,9.912440877867155
8.9,-2.6711469069699434,1.1873621151933882,8.477980725303533
8.95,-3.922034656331263,0.8056672165583462,7.327739698078975
9.0,-6.961941440275785,1.351645173441797,7.0846699918850495
9.05,-7.547991369890607,-0.40737203079659656,9.174230919242483
9.1,-7.267837474124962,-0.6019117200167249,10.401217312265263
9.15,-6.449033830331878,-1.2562500325185033,7.787265668769101
9.2,-6.060275320010328,-1.7814980860207736,5.560768158693985
9.25,-6.047247093918983,-2.633356803571256,7.249820307210758
9.3,-7.5839717634684325,-4.3042528548666095,8.890188815627033
9.35,-8.289411760664633,-5.358367327582209,7.280812523792274
9.4,-8.510297114150273,-5.5359646077976,4.092035378592509
9.45,-8.226290077596124,-5.337908559523926,1.9860302566549035
9.5,-7.021425658940883,-4.50581680443737,4.17471619186195
9.55,-4.914131772527164,-4.28048141240004,6.308365916879552
9.6,-3.0811618784859873,-4.5695337128512135,5.019393048590686
9.65,-0.3294457035849561,-4.7176571288466445,4.227240713742867
9.7,4.095817680246516,-4.0638586505148995,9.380396767074307
9.75,6.971363832920137,-4.782889750990754,10.160284400412863
9.8,3.1911563871355977,-6.077730872849473,8.430941611685528
9.85,-0.6294215335938615,-5.892389786489037,8.375355536889726
9.9,-2.525574339678834,-4.140719744254678,6.352568431563415
9.95,-3.0831717207386644,-1.8215983543281926,8.288227547845931
10.0,-3.8293759714654105,1.3514821328132613,11.89406351940547
10.05,-4.0232323948357065,3.917331480531922,16.24367471299237
10.1,-7.56138044036843,5.766818394196499,18.787968252450796
10.15,-14.846494380798267,6.729087656760864,23.31648068855023
10.2,-21.679919423428505,5.103915271087115,24.42298402475182
10.25,-25.11057840029306,6.715683001493754,21.721127079369207
10.3,-30.456807494751473,9.000942014956612,24.856386052682556
10.35,-31.003202923440206,11.2450944487763,28.26038337979909
10.4,-25.33923344754115,14.826666509099459,28.632907274778052
10.45,-21.171350681634983,16.903018838251125,22.249000863773915
10.5,-16.297124989232515,16.887606210018365,15.859272286443781
10.55,-9.076657106062818,15.089205798890896,11.581317379871232
10.6,-4.539334343938862,10.143715340474873,11.587942482198121
10.65,-4.2156052158174475,4.763230519523706,13.17735305698415
10.7,-5.816908454801505,1.3555298324848273,12.406212960499506
10.75,-5.810700680033725,-2.9290559909008853,8.822754373353758
10.8,-3.100796701691968,-5.1999573979253775,2.403788651663813
10.85,-4.6855371937538335,-3.6479394822292592,5.374656479586298
10.9,-4.202907794479947,-2.467852010763481,10.421335971529489
10.95,3.0865963480609353,-2.687401791512172,8.584535397342023
11.0,6.228377885906061,-2.980579279493418,10.053543054086777
11.05,3.4314095957768656,-5.167868905858527,14.023189107928854
11.1,-0.14116266130504357,-5.326638751096518,7.893737304194285
11.15,-4.052995191155331,-4.747590638695324,3.6753392148432154
11.2,-5.035329803546246,-4.9783628326278215,4.1779939264179875
11.25,-4.307827731417531,-4.30116648976923,2.0659185091859436
11.3,-3.0432644053328897,-2.3928870361586663,-2.0211560315632364
11.35,-5.660202220219398,-2.9949425702269106,1.705285756190769
11.4,-9.580919301202716,-5.926929815290146,3.871391659399743
11.45,-11.371645939923209,-7.861419327437509,8.096475510998813
11.5,-15.05152389108335,-6.967882935189016,14.724311172321132
11.55,-15.734998019280306,-7.067678412965712,19.559270231923875
11.6,-17.253989525522307,-7.884313652639222,17.734253803068228
11.65,-17.578936654194784,-8.396651501500791,17.54236693141917
11.7,-18.76309291910466,-6.883284969314633,18.666528469433516
11.75,-19.78174460708352,-6.474166380646985,17.024840032095355
11.8,-21.69908151132323,-6.541044428152414,12.95297658091474
11.85,-23.86677767783832,-4.533419891424974,9.14064509388863
11.9,-23.92436341597078,-2.834498422853074,8.631352356370556
11.95,-24.67308186444394,-4.245709114901787,13.693162352281787
12.0,-25.13252917403897,-6.853632623896933,18.369576028957358
12.05,-25.51959038674725,-9.502064669868629,18.96478159542828
12.1,-24.885477048886127,-11.028671172468728,18.41401767919796
12.15,-24.6722271801766,-10.439436137554233,17.651527473507233
12.2,-25.430210936325572,-8.267010930943016,17.175200664076062
12.25,-26.683622731138474,-5.687973423906388,18.278716381338697
12.3,-25.736438912404353,-2.3532001546580252,20.12939434951511
12.35,-23.094380604242193,1.1840758706180612,18.39224850822317
12.4,-22.627254163111097,2.4124547946105537,16.089384071249487
12.45,-24.010992352032133,2.648593737008704,15.178912567497367
12.5,-23.899482712269005,3.7017531774465406,14.510391697885705
12.55,-21.146511742804066,3.1314712127801494,10.98806658995736
12.6,-19.941440038688718,0.03987255107154276,9.383653746671873
12.65,-19.19979822245429,-1.541731192821701,7.650086813336829
12.7,-16.670089953518485,-1.3156843003522687,7.669769663038779
12.75,-15.054338658583239,-1.937938996974277,7.578580122566543
12.8,-13.436743340205943,-2.883725070379248,7.086446794706897
12.85,-12.080575931861137,-3.193149708531473,6.91745659376595
12.9,-11.98129696202758,-3.6973404601170365,7.078696551442795
12.95,-11.361665426667523,-4.329938495197786,6.694444052749086
13.0,-10.805135458980082,-5.102586846452405,6.1940172066916395
13.05,-10.462489045929846,-5.521563838068592,6.200983624283963
13.1,-9.750266973994993,-6.539851491954428,6.170757270568836
13.15,-9.530798110841678,-8.75931908332744,4.368140647946452
13.2,-12.442655016136245,-10.292755753888269,2.2555410049745412
13.25,-18.34236876490767,-11.325439427634823,0.8033613986834888
13.3,-20.974371852381466,-11.939846140344544,4.273405915077069
13.35,-21.413929911999553,-13.273170909250103,9.025056122518478
13.4,-21.827398188736808,-13.004525872409152,12.208026142189352
13.45,-23.36713459191805,-12.302250063691536,15.663300081752501
13.5,-24.48363788010176,-10.640386169578871,19.10368250688435
13.55,-24.61854897993658,-7.127229193411828,20.501695137260697
13.6,-24.874347885467827,-3.300260357087468,19.580371436000586
13.65,-25.25623643425113,1.2235276242769701,16.72626455570561
13.7,-25.236025843393932,5.6756280715920155,12.591281304524069
13.75,-26.26755969525115,9.501881217876683,10.799574303306525
13.8,-27.064836256555765,12.660648226624977,13.17349453478659
13.85,-28.672778095705418,13.366232966605299,20.291793624582283
13.9,-32.36893191218084,13.624054517550663,21.28496587815082
13.95,-35.59285384422575,13.684721993003482,19.145124869817526
14.0,-37.65236495440788,12.928550503384148,19.54409674262715
14.05,-37.491224986956595,10.91010503881293,20.836172114828777
14.1,-34.131711784938716,8.309523366558217,20.847858974299665
14.15,-29.62825611630719,4.4075119565510015,18.446254735815028
14.2,-27.04501224265089,-0.6823307101660592,16.292719879770715
14.25,-25.48328481992773,-5.08972887130332,15.681182099148216
14.3,-24.46745642638277,-9.383782874040275,15.43784645303833
14.35,-24.003635515118365,-14.541434726708388,16.27823093902103
14.4,-23.22655629210446,-18.955814106443285,17.86802390385525
14.45,-21.713298859267606,-21.786465580081778,21.182142711639106
14.5,-20.209966836024595,-23.59490065300256,25.872408065808486
14.55,-20.25786300209386,-25.19686707391327,30.337777145710877
14.6,-22.96219334846463,-25.925811064591436,31.960366348806954
14.65,-27.040947690495017,-25.329479717378483,31.841072938529525
14.7,-30.269439072293814,-24.364912079217934,31.418923794619275
14.75,-30.9657552440875,-22.402160284487945,29.967580031005074
14.8,-30.081644980146883,-19.579664385321582,27.21769831494515
14.85,-29.400297278599155,-16.0585426296457,24.014285877712965
14.9,-29.299287588840734,-11.295350252347209,21.28873816611023
14.95,-27.583488416454045,-4.392590954031773,17.580005114944672
15.0,-24.43105847853199,3.3576733700058266,14.912381397066103
15.05,-21.87242821502114,11.268978391634995,14.886201184464111
15.1,-20.515002633395707,17.44526991170234,16.123366933587263
15.15,-20.202333676179805,21.327028234431246,19.934536419263615
15.2,-23.562565165091282,22.328365386256383,27.057434704609058
15.25,-28.7133382576934,22.252919507832942,29.079300475903665
15.3,-32.72615842292907,21.991202235114717,26.81709651101874
15.35,-35.26323989786837,21.262486523349285,26.39676350083578
15.4,-36.32029595444835,19.46185485291673,26.58558897421624
15.45,-35.51766346940279,18.033854702317694,27.159424946864597
15.5,-32.49297088349908,17.6149608445884,26.37067326377836
15.55,-27.86884679571039,16.383667052713378,25.003263247694573
15.6,-23.206107568043052,13.655477044908721,24.836732985330443
15.65,-19.381406512839018,9.623127420176091,25.84956623979736
15.7,-15.229152244599025,4.210038511264694,27.44824630922615
15.75,-11.045746889065676,-0.6880907258434628,27.160822468944325
15.8,-9.808309432702377,-3.5209199576325174,26.609383402801495
