Time [s],Flexion(-)/extension(+),Abduction(+)/adduction(-),Internal(-)/external(+) rotation
0.0,-3.096002752995557,4.559399795469027,-4.38023516514259
0.05,-3.099647520914748,4.558296640287185,-4.412516962833091
0.1,-3.091673571681254,4.566441307878322,-4.397847989087749
0.15,-3.088946640688454,4.551210688279776,-4.480005617275432
0.2,-3.098534182712887,4.56526102014455,-4.549598515002607
0.25,-3.085883871193401,4.572269867584758,-4.596103660639063
0.3,-3.071378767877159,4.565539417265419,-4.593309483281608
0.35,-3.083823555964033,4.545584461613383,-4.620490170322103
0.4,-3.1224095778240395,4.497382079863603,-4.636028985712578
0.45,-3.3418431277904523,4.385070882319914,-4.744589206421648
0.5,-3.764561318959901,4.1896550589546875,-5.042937255686216
0.55,-4.38665186535038,3.9798184565229278,-5.584384401594324
0.6,-5.0613694497870885,3.7088793209589195,-5.4737905442073185
0.65,-4.9466782720738856,3.386787162779861,-5.168602069168391
0.7,-4.120357691234304,2.6573483668709312,-5.204760327465262
0.75,-3.162153813094352,2.1222823573451874,-6.035081048669075
0.8,-2.1520124688563915,1.8724590202921967,-6.007979934259964
0.85,-0.8439975607199763,1.3479786531625304,-4.776071222273032
0.9,-0.1015443515884849,1.0133388367616711,-4.054373327090781
0.95,0.22640053469611904,0.5313285941646523,-3.088079357149778
1.0,1.0233919676197847,-0.26420720647473184,-1.578564005555186
1.05,1.9704623407140305,-1.1467487110256898,-0.8724706062851664
1.1,2.5650152262876325,-1.9984599137694934,-0.9838131071885144
1.15,3.243537012987124,-2.7763801481767545,0.25316527767880376
1.2,3.35744351988124,-3.3485313660216396,2.783970664004081
1.25,2.462454030096886,-3.7443588768371887,5.151561242878619
1.3,1.5413634891901897,-3.8893477875527847,6.219203100432044
1.35,0.5152200923554753,-4.014378806205856,8.093502985491163
1.4,-0.019560621913130117,-3.755561518306854,10.290987777673573
1.45,-0.9163424816310327,-3.202514725792825,10.256415590488267
1.5,-0.5843712616432739,-3.1654174086070155,10.394863859049785
1.55,0.6827453508557403,-3.5424860112517145,11.599959913118548
1.6,1.7682888991977566,-4.508444148007195,11.437845699986601
1.65,2.8803495798687,-4.910783281369064,11.23969473916032
1.7,3.4403538665816495,-4.334753670680474,10.610485960582245
1.75,1.6472138021875065,-3.7099816661020446,8.709280948200606
1.8,-1.8543903082698818,-3.5452645070566944,6.546501495292027
1.85,-5.999659872479744,-3.1710507559743153,3.5330260779034806
1.9,-9.30409933395567,-1.6175820226698656,-0.4682453091456305
1.95,-10.581796766067125,-0.6710955726292048,-3.2627897056173825
2.0,-11.901749371900417,-1.7398331904258952,-4.780761701278839
2.05,-15.131406224654096,-2.629362734798309,-8.109008828278162
2.1,-18.528084096348564,-3.504008745140904,-11.137240735353767
2.15,-21.87608167840375,-5.65054182850156,-12.308871530786782
2.2,-25.268505886536467,-7.956141939628615,-13.780143956440952
2.25,-27.66899089764968,-9.202771214671744,-15.058907317845666
2.3,-27.53337707816322,-8.94012349647275,-13.916107543633515
2.35,-26.909671110755305,-8.623325904534985,-12.922876372216056
2.4,-27.78089483316531,-8.614331707537055,-12.990165534868511
2.45,-29.007270622557385,-8.302747299102057,-12.23838700758
2.5,-29.15603266960972,-8.132519033467897,-11.7290547534188
2.55,-29.51291802813973,-8.31638109593368,-12.284121866578278
2.6,-32.628927821416596,-7.646661782579434,-13.422442259427786
2.65,-35.877203854227496,-7.1721651151446615,-13.393834606147355
2.7,-34.16010014192076,-8.874577247736315,-9.444928264062739
2.75,-29.30921123472226,-10.74920885486925,-2.450948227474419
2.8,-20.903671813487936,-11.234906840490831,2.5734966628658533
2.85,-11.794283778305145,-9.997826190624503,7.39606470737345
2.9,-7.328299647746095,-7.442492583379967,8.4721360623094
2.95,-3.1549726793858968,-5.423182917021005,9.95368009658654
3.0,1.0682186405954182,-4.217301082203104,12.512551515039501
3.05,5.78958456130711,-2.4713862529119934,15.813047828161405
3.1,11.481996868932933,-0.6925828138911162,14.924902821538652
3.15,16.628023614743036,1.0217344938882877,11.021852333613678
3.2,15.505352095929812,4.116844229311738,10.801845525232713
3.25,9.66844701971689,5.280591571573673,10.682458980166208
3.3,2.492084476003013,6.247093123585692,10.633058307499383
3.35,-4.088186636249742,4.302160238509096,8.95582058289793
3.4,-11.863512721875374,-0.002366541040763631,6.55703408144417
3.45,-18.43132806257707,-3.2579758968348775,2.2672776330694484
3.5,-22.24243575185626,-4.500256796004004,-0.19510342372944625
3.55,-22.55868603659548,-5.0131566817271604,0.7014311517749919
3.6,-20.06983287770051,-5.128275790029983,3.9619865224419244
3.65,-19.55363992551856,-5.853139914595499,8.39911200388514
3.7,-18.546036314957,-7.431345265412593,10.563388780611533
3.75,-16.68613195344077,-6.682511544539851,10.147686578401357
3.8,-20.17306055428465,-5.318535782281711,7.829363956394844
3.85,-16.5027391399928,-6.514185625290457,15.979279197210067
3.9,-11.550105948835437,-5.732781386463335,21.06373347169162
3.95,-7.575120579224345,-5.000448536757762,17.238364841737
4.0,-5.70842431565059,-1.981462391593897,13.958430236230438
4.05,-1.8729487552846502,0.6365017669913694,14.7894900584283
4.1,0.7974777654925225,2.4353424090139986,15.970070368948067
4.15,2.3930441455341556,4.127104726151775,15.300914552101906
4.2,1.6827046888259123,5.342230063696488,13.469040479575177
4.25,-1.8665138074479157,7.053372389034548,10.383170719255876
4.3,-6.166225690619028,7.755048378031301,13.319137376177226
4.35,-11.553261948923808,5.855297169414855,17.163082309493962
4.4,-15.448549372037862,2.182412073941045,15.793463884292793
4.45,-18.739890115248862,-0.5517739846181631,12.569297982525798
4.5,-20.180916848893702,-0.981956128665121,12.651354860815422
4.55,-19.24464197066167,-1.5401131503850973,15.717720963735978
4.6,-17.81718898159735,-0.46883712105688613,18.940550830631324
4.65,-17.628415566826355,0.9009282474532901,19.590285339467105
4.7,-16.92225109604703,2.168632584143507,17.042545902186763
4.75,-15.353036025614221,3.353091802853581,15.846227298776729
4.8,-14.268196554633775,4.931566936940909,16.581092553076612
4.85,-14.60958413223348,8.372547849080684,17.722462206325954
4.9,-13.454842077871639,12.804379369910775,13.231412866920042
4.95,-9.696608655649378,16.258424971896734,9.488563950147547
5.0,-6.580117729970382,19.53209850741348,10.797593558512755
5.05,-6.627492170534487,22.427879056909994,14.488067569240622
5.1,-8.03782454128697,23.487803468178424,16.862434282195693
5.15,-10.066238652977594,22.67154104995337,18.143321381674664
5.2,-10.526756530532115,21.240228590199553,18.724652049042586
5.25,-9.500253839051197,18.9318197988011,18.451971499557676
5.3,-8.159092380956308,17.502896669857698,17.4687879696492
5.35,-8.366013806380748,16.710277665282895,17.257243060567777
5.4,-9.233352479631165,16.057539395955107,17.566960455879705
5.45,-9.388150369452568,15.19738075087973,16.989911645226798
5.5,-9.164216777651452,14.525511030394297,15.529910606984853
5.55,-9.23994766838534,14.467169026712432,14.7865286009861
5.6,-9.342864917601652,14.951316048596238,14.689884171772597
5.65,-9.293620076959353,15.003816039505645,14.319310286977641
5.7,-10.068414824337186,14.67760714236416,14.427907176347995
5.75,-12.099837777816102,13.628338931530623,14.723537325985253
5.8,-15.275906750088476,11.394462084298537,14.080015864199716
5.85,-18.849825633559124,8.004535741603197,12.385296302669373
5.9,-22.45843394365139,4.134331435458669,10.245589917612076
5.95,-26.17222790437356,0.5234449242974223,8.47752991762307
6.0,-29.45029389639804,-3.3485879644349814,7.712419278003872
6.05,-32.6279582159673,-6.207240992035382,7.595166434374747
6.1,-35.38813790944764,-7.674820292241031,7.648895806294131
6.15,-36.765515338940965,-8.40044286380223,8.332512889181713
6.2,-35.90192633931723,-9.63431307893014,9.086736819499741
6.25,-33.595168054036456,-11.400458195841209,11.280020772843256
6.3,-31.11739459853692,-13.922386645608523,14.494265390272608
6.35,-28.829764666730274,-14.640130292888529,14.206182966790722
6.4,-26.94389198547015,-13.202937611574765,12.428489977894472
6.45,-26.502973171088588,-11.292910227348164,11.304894610721162
6.5,-25.972481119681042,-9.86525992793159,12.16149427115495
6.55,-25.30372682253676,-8.98614081599861,12.894176069748616
6.6,-25.51150033465824,-8.066660369476283,12.376975653871815
6.65,-26.231872523900325,-8.015905454818071,11.919922110505427
6.7,-27.899315094499467,-7.961098304443167,11.499185960748783
6.75,-30.503111734628686,-7.159003600850808,9.56057055259235
6.8,-33.09020457019587,-5.986953286877152,7.071224846664151
6.85,-35.92192955768899,-4.54427025559811,5.106431450648392
6.9,-38.39156901581451,-3.2023493141535684,4.131700586064282
6.95,-41.153734168308276,-3.3341992560397413,4.001605453552791
7.0,-42.568422262032044,-2.342108149919411,2.654554489930617
7.05,-44.350507326115775,-1.5625091956061024,1.5114593896915762
7.1,-45.37170787870508,0.01560446277603967,1.2777759321773459
7.15,-46.3326256991239,-0.7273500037019522,2.3237961589209837
7.2,-49.25067036273762,-1.0334601809221904,1.6729744283347119
7.25,-50.716142617953246,-3.219342654937763,3.564396929108115
7.3,-45.27298179218416,-7.548684994778776,9.721247608063221
7.35,-35.71909245460364,-11.578488117917535,16.119278791957743
7.4,-28.57761356853208,-10.88745307549422,17.720421832200813
7.45,-24.003097784544863,-9.326508462528908,18.577263801364182
7.5,-18.64943335043762,-9.61122425857913,20.79323069787178
7.55,-13.593436763194797,-9.81556796044846,22.767535250341577
7.6,-10.248904152866746,-8.212205039779782,21.977161001202244
7.65,-7.747801227517797,-6.978755995362844,21.16848475893555
7.7,-3.7893827966024287,-6.7193748867338075,21.32436768145933
7.75,1.8932074545556523,-5.3370422355767415,19.037233231918574
7.8,8.578503043408816,-2.402514550548953,15.971156754661207
7.85,14.007126031840933,1.3286821747620428,15.671130661742477
7.9,15.953115327096098,5.215322937098323,19.448720346701286
7.95,12.824465265818915,8.224072880556074,25.042699077252482
8.0,5.97858231944993,7.342149985599275,30.937473013046727
8.05,-0.8021666167785819,1.8768657425449016,32.88967395213648
8.1,-5.287538701592339,-5.490660549146899,33.694995141598675
8.15,-8.35492534177599,-11.551144464988212,35.59704337837748
8.2,-8.388602084028328,-12.056578368380107,33.589338943765405
8.25,-6.9726958755500865,-9.994269986358365,28.498977013112906
8.3,-8.12277336948928,-7.628012158948541,20.80120607255711
8.35,-9.350924060329815,-2.9596091997614433,13.4500255109793
8.4,-8.288073449894798,1.207669166332517,9.900420445502673
8.45,-9.112014681679456,2.5046056682231295,9.137975242059637
8.5,-14.085706997142777,4.170800044015174,9.677752976412206
8.55,-18.853492079643555,6.4212701697827805,9.709217670618951
8.6,-23.110917922943035,7.2427937564811105,12.559852954665386
8.65,-26.7929823339996,5.204596779596295,15.463431546201718
8.7,-30.56956565771891,2.986878785818412,17.625703041185044
8.75,-33.3603817001916,2.018085899787536,18.108042086181293
8.8,-34.85989318260375,0.4907517678809243,19.692513428103467
8.85,-36.14220709476085,-2.2987234866730812,24.467778598189454
8.9,-36.11245222355672,-3.443204133579881,24.168623418441836
8.95,-36.28648721973197,-4.254449167797952,19.49805403265672
9.0,-37.15116394479248,-4.537733516046595,16.00281405413127
9.05,-36.25272160352608,-4.248983436708866,13.413325116925472
9.1,-34.43321277876274,-3.5374616667794387,11.551958702281603
9.15,-33.21230214821516,-3.3468985593005374,11.670611186151351
9.2,-33.299687243006005,-4.704253984811039,12.358823033620014
9.25,-33.277525090255914,-6.195974433333256,12.073448912736335
9.3,-34.76199576667262,-6.21894791353913,9.627124564955487
9.35,-36.338259319304306,-4.545993170906097,8.713514962851054
9.4,-37.532713047596054,-1.7082471688126832,8.498932601504025
9.45,-38.66168883769721,2.3542784759216104,7.288583536407549
9.5,-39.26210532263009,6.985076053639055,5.7226345459333
9.55,-39.66021004769731,11.147101464050957,5.030656414577437
9.6,-40.11501807182499,14.011083423127342,5.953433393629483
9.65,-41.07951483744863,15.0614723552468,7.118752109650439
9.7,-42.08727449546704,12.270139709705033,7.940401965149193
9.75,-41.26804512096972,6.7837080546300195,7.618421750659512
9.8,-36.68563976315986,2.379677359731846,9.846856384862313
9.85,-27.680163264727387,0.37889356307981836,15.354680411858967
9.9,-17.817019708287045,-0.9064883104018464,20.144473614178033
9.95,-10.085887042273635,-1.8093512855990348,22.81140303695533
10.0,-4.639064836978027,-2.170601923688811,23.44607946121584
10.05,-1.9235768191892402,-1.673611203156425,22.304148967440437
10.1,-1.5810160395051693,-0.9771454601007794,22.33783005696335
10.15,-2.149424336566699,-2.1826150519679173,23.63263914248502
10.2,-1.05910149284325,-4.184519193761057,22.22754912398197
10.25,4.87564795780814,-4.489313273623784,20.180962218879326
10.3,15.0387087647417,-4.167710254038353,20.050431672043736
10.35,26.34055143520124,-4.000948943596573,20.74680072328236
10.4,30.237101037761022,-2.5022467733736504,21.685643246839632
10.45,21.46453682478983,1.0178420910930868,19.91325255288985
10.5,6.435877233848296,3.4851255476982126,17.798534819599112
10.55,-6.794056792900395,2.477867703616641,18.665693056154293
10.6,-17.78972755561234,-2.8329612584902564,18.03952050608403
10.65,-26.873422606317806,-7.323402537320569,13.204111944589766
10.7,-32.46108709155339,-8.61439513279834,9.327490493995898
10.75,-33.08202088954007,-8.112330954611052,8.942228269121726
10.8,-33.00431839294359,-6.801132104917214,11.636470641583037
10.85,-35.49726249985433,-5.049897802992564,11.521587048369053
10.9,-37.47822802234044,0.08121370213242364,6.966359050992789
10.95,-35.898751899503935,5.093533570055928,3.6554012638386153
11.0,-34.300003948841635,3.526136030302443,4.906855765119822
11.05,-34.76195562746084,-3.0931334894102167,10.963609199425646
11.1,-30.804302389416243,-4.59204317466991,13.027551698138362
11.15,-23.394073056913996,-3.9823026543378934,11.084449249616807
11.2,-16.772135001543212,-5.088608411670537,10.619646417299107
11.25,-13.838577990890217,-4.647968478853613,11.101805933270432
11.3,-14.537939916888561,-2.673341667072928,11.230775857816099
11.35,-15.220507215264377,-0.09438472263328544,11.716923517879462
11.4,-15.295720270491802,2.1689800361646725,11.010312263425858
11.45,-14.816591404059825,5.285489052709625,7.003308766116766
11.5,-14.812867080084972,9.539676743577525,0.17770657574264598
11.55,-14.270197007117895,9.605302801507166,1.4119942376135763
11.6,-14.468767215399762,5.66507816807153,9.10367822147902
11.65,-13.734009992505976,3.1484938703528487,10.711813343244671
11.7,-11.71682904009922,2.87941455156924,9.446644750359473
11.75,-9.56551362316211,2.720798171241028,8.02268139651425
11.8,-8.172753492000929,2.602484172931911,10.042445765160139
11.85,-7.429083184875056,3.2987700783392646,16.546125382900538
11.9,-6.025932527220207,4.229215313738059,19.296187055625804
11.95,-4.559671842597528,5.064401878347061,17.977025057887637
12.0,-3.6567227290913284,5.417535333248558,17.747184633112848
12.05,-2.812653024077725,5.178778197734497,18.552730556859196
12.1,-1.4989887805323399,4.6101603532600715,19.202140366719394
12.15,0.1470803035960172,4.345915554983858,19.943614752018533
12.2,2.785666637543287,4.711790391805352,20.73069784924849
12.25,6.251762533621239,5.397218269534175,20.438933506874374
12.3,9.226128565255422,6.753656005900014,19.195842906327222
12.35,8.291850702847084,10.718343745247143,20.95672784152716
12.4,2.2491395639424168,14.238710180553506,21.727058111036786
12.45,-6.957538177755959,15.136277309562175,15.858878318361333
12.5,-16.576796330199855,15.109777513623841,10.424914178484213
12.55,-23.821812911605477,12.885484509292803,7.663052606861968
12.6,-30.116206400516095,10.578373973733527,6.621917210386277
12.65,-35.17249796322831,8.927573481440362,7.838832631649226
12.7,-38.02965864540329,8.95982351849456,7.457382164402747
12.75,-39.905598620315374,9.582815902885764,5.144627706401195
12.8,-40.064568999631945,9.679348416133664,3.318001935939776
12.85,-37.89214417524273,10.021495053449629,3.0012944982197083
12.9,-34.60822105611777,10.76819151749181,3.616941365704577
12.95,-32.210545024758076,12.367449885956708,2.5850305879278563
13.0,-31.83325858315227,13.698520657906073,0.5574031682513733
13.05,-33.42279456287957,13.84691013582534,0.3854224578516899
13.1,-34.58333006839777,12.873791300573371,2.519789708296019
13.15,-34.57645444254975,10.779752065108026,8.005876307341785
13.2,-32.87712208064688,10.21936208512218,10.081004787581938
13.25,-30.897159739379248,11.240265903341996,9.637667858889484
13.3,-26.748088538970585,10.764364648864728,11.411555980654601
13.35,-21.23306687619632,9.565497421101435,13.707873018999642
13.4,-18.269244623169786,10.17214106272618,13.067629371208376
13.45,-18.010749660819474,10.480715326990891,12.504554121082224
13.5,-16.66938012192738,8.324319107342788,11.343970184347663
13.55,-13.877487075064648,6.488590992382631,5.590221214657409
13.6,-9.957066288679908,4.392275152852186,2.9807608587606094
13.65,-6.841740641760112,1.6683417319281022,5.261418659398925
13.7,-4.733675549359535,-1.0280008177950926,8.52017868700775
13.75,-2.815985676428648,-4.393799445505867,14.921580775742845
13.8,-0.10984288933071644,-8.0586463005705,22.08393546983093
13.85,3.605374031306031,-9.700981796663351,29.14355876430018
13.9,6.521170263196452,-10.151560754861219,33.31799061718831
13.95,8.303348510020792,-10.230094315942502,32.85059953221972
14.0,9.252960550929238,-9.639289027014089,29.489183348625705
14.05,7.384706073811449,-7.34135556671362,24.00345940440736
14.1,5.039315581849694,-5.026397609146056,19.884605233098796
14.15,2.441049830643714,-3.613542981402338,19.254548259318813
14.2,-0.393678029361329,-2.3773340661230673,19.609756228035554
14.25,-2.6676066995537324,0.18331294661662337,18.455420553565027
14.3,-3.4120684668839054,3.156995695685465,17.306851850721163
14.35,-2.330610227256666,4.549672819597199,16.465586143566046
14.4,0.5068257871672814,5.509018662371097,15.31131046063059
14.45,3.8773282294448905,7.591324669425823,14.725537632146809
14.5,6.250327139961696,10.065919088489052,15.833242703791836
14.55,7.549550396668832,11.90307492714558,18.05484815736045
14.6,8.11089988026404,12.956404435234548,18.727419665350542
14.65,7.9037446076199664,13.418627309298499,18.915615777904247
14.7,7.325133542321464,13.209758431942507,21.256271431776618
14.75,6.634172556057818,13.015023886501744,22.865936318327705
14.8,5.027119692761968,12.410614769229381,23.313615330149336
14.85,3.5785151964700836,10.405038111964071,22.83624960413575
14.9,1.85542855311124,7.057888813206698,20.36178482733844
14.95,1.5060144859124351,3.5834580987466254,16.978750419824056
15.0,1.8216746177086902,0.5237482063120849,15.402829360244597
15.05,1.9512221515779389,-1.17489709252981,18.40617783081508
15.1,3.6275045886642183,-3.058342398899614,24.36452857412713
15.15,5.5481908284645165,-3.958872166169576,29.269285761757484
15.2,7.694954440349925,-3.7098257067909497,33.526272123960176
15.25,8.91973005038948,-3.028504063340062,36.51384183447132
15.3,9.295080146244871,-2.7839939807779017,36.20419168129525
15.35,9.234553638062291,-2.202311591197186,33.3621568976649
15.4,9.081779765767601,-1.0294327009435236,30.62996292804909
15.45,8.638148524742354,0.5656680914251849,29.050904489292353
15.5,7.3532299346018295,2.7330725969835825,27.34756866516911
15.55,5.4109376889273415,5.1035070362470405,26.29449448857793
15.6,1.999807304160427,6.957432348799529,25.268156776013896
15.65,-3.3059447692286126,8.175716019089839,21.269129749857406
15.7,-9.398900499290406,7.776363071545391,15.573357402059756
15.75,-17.007191885611736,5.802455160776264,9.321245822161027
15.8,-24.399286747923604,4.973830414208255,3.4804120445198183
15.85,-30.474224845765853,6.151323982069384,2.1226901291749143
