Time [s],Flexion(-)/extension(+),Supination(+)/pronation(-)
0.0,-25.190624474667565,-2.7156505436803386
0.05,-20.436978476891408,2.5508379438292956
0.1,-17.053417938145078,4.380794341316772
0.15,-18.100620407663033,2.6432187981057105
0.2,-19.778148106550233,0.05602053497295525
0.25,-21.177272107346464,-2.1217220967345147
0.3,-21.54755725406625,-3.7738963819354074
0.35,-19.837065653209493,-5.273447209662573
0.4,-17.3096786577607,-6.649145665730746
0.45,-15.811565372409387,-6.931260747010805
0.5,-19.622004555344112,-8.393017428996933
0.55,-27.509135082442608,-10.787844769465963
0.6,-37.043060939218456,-12.132596083651604
0.65,-45.92171487822228,-12.237320272020078
0.7,-53.35839285655572,-12.214111516075207
0.75,-59.50565409406986,-12.415166621411393
0.8,-63.79427084117332,-11.729565031299225
0.85,-66.83418783801707,-10.198542273255955
0.9,-69.82037831027525,-9.186293605960282
0.95,-73.00643968842328,-9.11281753280386
1.0,-76.00936532632086,-9.646945158042351
1.05,-77.82147149901853,-10.062025687766745
1.1,-77.34800526837087,-9.057670467896976
1.15,-74.45820477140633,-6.375619916409956
1.2,-69.59016380075107,-2.5839978710806535
1.25,-64.95268027229868,0.9500833715326017
1.3,-60.349882808322505,3.593654618462042
1.35,-54.57861579461836,6.356122460961294
1.4,-49.12104691518732,10.283934861480063
1.45,-46.08681747109874,13.94430944036198
1.5,-44.15726785877929,19.99199904980791
1.55,-44.7159708782232,28.064065267091753
1.6,-48.55913953637371,35.348476877591054
1.65,-51.80480652989136,41.17705824833957
1.7,-53.339519858447126,45.98079933107757
1.75,-53.071990634056455,50.89755264733901
1.8,-52.2474961316196,52.80340096198684
1.85,-52.57776033465079,50.77280119206536
1.9,-53.364348173567514,48.34179733228685
1.95,-53.48603977830688,46.69565574531013
2.0,-53.1328935813835,44.54158862166024
2.05,-52.69931686326831,42.574021902358815
2.1,-50.674066573501854,41.56129895955006
2.15,-48.47104508125566,40.43002510455668
2.2,-46.42499339336502,39.518369521902756
2.25,-44.126650016138946,38.97599163121608
2.3,-43.62947975377614,37.763504605388945
2.35,-44.46399365127421,35.60249488674576
2.4,-47.686519390311354,32.11091127420544
2.45,-53.344617943145494,26.66224030495761
2.5,-59.78861406027675,20.348497917015543
2.55,-63.731323791571405,13.826650381699565
2.6,-63.0446849543538,10.03463975416506
2.65,-59.786808878190634,10.746651829841547
2.7,-56.71016029936562,11.781274461897311
2.75,-55.95643622582188,11.8602718052994
2.8,-54.5611050121418,12.395326948910775
2.85,-53.28615830831709,12.54276787861113
2.9,-53.054303249221704,11.825558063570906
2.95,-52.78893476374357,10.522073032692566
3.0,-52.54444324080752,8.559659690181693
3.05,-52.203195055436666,7.006620817496358
3.1,-51.74878769114312,6.250670503013399
3.15,-50.37105001720169,6.668058421845799
3.2,-46.760234606355525,8.898021830983337
3.25,-40.963463368823,12.933916734878428
3.3,-33.813067847707615,18.84916805449671
3.35,-26.083342079260355,25.659376366700165
3.4,-20.997780046031153,31.863462140676216
3.45,-20.45303847027761,34.75584322345316
3.5,-23.042050372064715,34.76929250436627
3.55,-25.415064882242945,35.020841495247936
3.6,-25.830126003910973,35.77623013028328
3.65,-22.185269865821898,38.371953008339254
3.7,-13.305652602465086,43.02752233238843
3.75,-3.760161686097474,47.363265738603594
3.8,3.347477312495594,49.793040627774566
3.85,8.217653374834098,51.07932829966956
3.9,11.109681059756523,51.77529710316745
3.95,12.473290233910008,51.87733646760023
4.0,12.603831616232107,51.39304345499951
4.05,11.445797653659614,51.10267721099984
4.1,10.042643761036436,50.510401785454796
4.15,8.791470387716412,49.750915778622826
4.2,7.261153517347079,48.38457937577466
4.25,4.888520149792758,47.196062288578446
4.3,0.2355958173106118,45.359131479178416
4.35,-5.957264991322619,43.258675917547805
4.4,-13.77767657401969,41.054112384128764
4.45,-22.073089426633594,37.69090951067112
4.5,-27.579427351586272,34.781825147289545
4.55,-30.741345989086085,32.26046208924574
4.6,-33.389331923261665,29.648427309187785
4.65,-36.649717707127174,26.64116164651435
4.7,-39.84985254388844,23.518323619440185
4.75,-42.502573015731095,20.776322327964845
4.8,-44.05062127644914,18.775858410484133
4.85,-45.10408850419864,17.30733213375523
4.9,-45.58487508927104,16.574769970800308
4.95,-45.094573932426115,16.590156889773127
5.0,-44.1709517140028,16.383771469273157
5.05,-43.48220574799589,16.269441063657343
5.1,-43.19883883977119,16.450369997711803
5.15,-43.24730514976395,16.428450089928088
5.2,-43.295077473957754,16.313036794522386
5.25,-43.34874476197481,16.204042011021
5.3,-43.619574878160876,15.974950512983648
5.35,-43.820142492158126,15.593342210175484
5.4,-43.88243156122578,15.152283784475262
5.45,-43.98074463472582,14.59394653984158
5.5,-44.05981581851345,14.127962521765337
5.55,-43.991676703326306,13.649753637500408
5.6,-43.817866828404085,12.828897053782255
5.65,-43.47944695905313,11.725500628763676
5.7,-43.24535809374091,10.779505478396944
5.75,-43.26995883067207,10.359565486856736
5.8,-43.08266178263331,10.65044701566489
5.85,-42.32250745899363,11.629199640315747
5.9,-41.15128909363991,12.682552429673828
5.95,-40.12097305037222,13.32962663719843
6.0,-39.500477228662604,14.014276172657375
6.05,-39.05888029666818,15.021458669634319
6.1,-38.764851160001655,16.223519063421183
6.15,-38.85790450326544,17.310221853346498
6.2,-39.360483613018644,17.657142247212466
6.25,-39.8052148354566,17.60316939014201
6.3,-39.9879881266882,17.49501131762874
6.35,-40.36781087841258,17.875855596651952
6.4,-41.03372175432087,18.582333384739957
6.45,-41.33138591675003,19.154750918803757
6.5,-40.81614144856418,19.71067263799826
6.55,-40.03086867651015,20.361631795941758
6.6,-39.71304601764284,21.02217989512822
6.65,-39.9560429327683,21.504169403060637
6.7,-40.33409480292797,21.832345701413665
6.75,-40.74102378182261,22.078406231361217
6.8,-41.49780259025617,22.142841204041094
6.85,-42.42269105962857,22.392600741043545
6.9,-43.2802678144316,22.757435323133045
6.95,-44.15607926126599,22.52154355053226
7.0,-44.984124202776584,21.911528772115396
7.05,-45.71457573736422,21.202758281776745
7.1,-46.17266526770312,20.1395863107922
7.15,-46.18115038078035,19.292643954985063
7.2,-46.020620511137075,18.766276436213943
7.25,-45.94639133550562,18.16145190893297
7.3,-45.83461810578606,17.71386388791228
7.35,-45.68108433422043,17.384603380558318
7.4,-45.48212022199716,16.97111769045611
7.45,-45.28438425225302,16.47081180472988
7.5,-45.025954247584224,15.936997191486768
7.55,-44.53107961268862,15.412493041951663
7.6,-43.99634005017227,15.157645994106083
7.65,-43.94795344897235,15.032069956653917
7.7,-44.344186841755764,14.852571135817193
7.75,-44.64850544271358,14.703396998473874
7.8,-44.419741976800125,14.792015452690217
7.85,-43.62504955485751,14.977820351909457
7.9,-42.856889317656325,14.93801506756138
7.95,-42.58411847922943,14.670865335030907
8.0,-42.601952528522304,14.425061640422244
8.05,-42.64849339759172,14.186852513695843
8.1,-42.55964055160329,13.842123155746858
8.15,-42.4851419873692,12.941476842913724
8.2,-42.13075922582816,11.553444029093889
8.25,-40.94641666471211,10.470659194518984
8.3,-39.65158205761866,9.910406766755896
8.35,-38.16192093753392,10.507376254188824
8.4,-37.61125273509993,10.882431041902176
8.45,-38.27761252785851,10.242852965397091
8.5,-38.73503352527715,9.559358994916614
8.55,-38.09833767697147,9.687577865339698
8.6,-37.3373642214096,9.88838665749503
8.65,-37.57896374451911,9.403297404404706
8.7,-39.27041164352026,8.030715703538018
8.75,-41.90498932830236,6.74794235288619
8.8,-42.56360175558747,7.22156361162813
8.85,-42.33326212669626,8.01575321062635
8.9,-42.459293497721454,8.253091242517058
8.95,-42.77426852269504,8.83923386280807
9.0,-43.567485533620484,9.404775898837435
9.05,-44.75278767095144,9.4719637883991
9.1,-44.97014718905804,9.03048473470627
9.15,-44.81362166232567,8.16971876096911
9.2,-44.64964784466156,7.740042221473378
9.25,-44.526309809226575,7.360457570389502
9.3,-44.83712739463161,6.189157496600907
9.35,-45.89601250438558,4.566491416098248
9.4,-46.54136649969108,3.6253333980485536
9.45,-46.29790298814922,3.0534593866895725
9.5,-44.78556504384701,2.116817739953599
9.55,-41.82218996814655,1.6254556211642255
9.6,-39.24013532754742,0.7060580749780112
9.65,-36.3284484259905,-0.10953257178609965
9.7,-34.76857863607579,-1.1470099679862842
9.75,-34.63763280529539,-1.8439104769174968
9.8,-34.38436460719624,-1.2875233938098987
9.85,-33.63446523648247,0.16930231517417313
9.9,-33.27117692582339,1.8980944398993458
9.95,-33.50678410441464,3.3950999220777645
10.0,-33.4829310843844,4.551282137093389
10.05,-33.31120611993776,4.657986378905014
10.1,-32.857188910297076,4.077088791783909
10.15,-32.56176766420666,3.1381013589815083
10.2,-32.52777379280606,2.2183628376759508
10.25,-32.4346036244806,2.004717552001797
10.3,-32.19558627302442,2.042217498904622
10.35,-31.61176186732196,2.082806380118138
10.4,-30.938684914421014,1.9388071852935234
10.45,-30.782799544326647,1.5769365099303048
10.5,-30.479963906433454,1.4785808344034164
10.55,-30.518565706986937,0.9422596700830875
10.6,-31.079912135349677,-0.1257214292790854
10.65,-31.398235833846343,-1.3835651968183067
10.7,-31.67133072823121,-3.079878683832373
10.75,-31.291362900274326,-5.4504950359468225
10.8,-30.762633483846084,-9.352791156062949
10.85,-31.27801970199699,-14.203419428042132
10.9,-30.88157195097983,-19.29731484764859
10.95,-28.492415285004043,-23.732996296111708
11.0,-25.76382582229492,-27.22915169431344
11.05,-23.501602868047048,-29.687235961224015
11.1,-21.99384148858688,-31.602179470147554
11.15,-20.70428327488964,-33.39410919318112
11.2,-20.845089411272063,-35.1453844490482
11.25,-21.011762945515695,-35.88456743567678
11.3,-20.727643406618938,-35.962977766295225
11.35,-20.85228430251887,-36.686296173312925
11.4,-21.366864013710504,-38.23946708619072
11.45,-22.271277082679152,-39.89341344272075
11.5,-22.1323761598254,-40.897213209167894
11.55,-21.289699806561558,-41.18866315779232
11.6,-21.026283543425283,-41.091721268646985
11.65,-21.034185810203304,-41.086385519009745
11.7,-21.136201415177688,-41.66611237617687
11.75,-21.886016085993493,-42.921583779160066
11.8,-22.518960710255783,-43.91022554215161
11.85,-23.05398684968332,-44.05442353754834
11.9,-23.547424861832145,-43.52246310677977
11.95,-24.536340145734645,-43.161262419710305
12.0,-25.5077121769104,-42.97430609250184
12.05,-25.772357224025193,-42.632625575736085
12.1,-25.679474550159284,-41.7094834529912
12.15,-25.50084139836256,-40.38762123764688
12.2,-25.3303983464298,-39.03364700150754
12.25,-26.064198001619634,-38.63662307534941
12.3,-27.224162263770292,-38.14668264144363
12.35,-27.33199780233054,-36.62727595690688
12.4,-26.677210620875346,-35.626777575977755
12.45,-26.675829105885377,-36.31828304868854
12.5,-25.76795587657144,-37.55050939223603
12.55,-23.805458418557578,-38.50356541020123
12.6,-20.651048872853675,-38.211302911133515
12.65,-17.146074569669334,-36.92542004381979
12.7,-15.384111703237831,-36.5594255727916
12.75,-15.699600790479055,-37.613426654447245
12.8,-16.686157727899296,-38.48835023169111
12.85,-17.073044531965287,-38.46078318771619
12.9,-17.258108486424877,-37.94676607297174
12.95,-17.201612140559238,-37.232702396788085
13.0,-17.066001040614292,-36.90058944305229
13.05,-17.04280366575171,-37.035044178021785
13.1,-15.804191345643194,-36.90836782425593
13.15,-14.055045161020427,-36.06951774013696
13.2,-12.290543920764645,-34.64221410079937
13.25,-10.921895479719234,-33.352531883735544
13.3,-9.60542752251981,-31.88626438951684
13.35,-8.35204214658101,-29.264485047317926
13.4,-8.02950799902067,-26.81366742083688
13.45,-7.262523507722223,-24.590187673378516
13.5,-5.237077751671421,-22.562490385443457
13.55,-2.1272250331200397,-21.33641904422596
13.6,-1.600397816284431,-21.384134758180252
13.65,-2.208133320495783,-21.015875362705174
13.7,-1.486676138101747,-19.254493454852753
13.75,-0.3114282672607397,-16.528345425654837
13.8,2.1872244133485323,-12.425158309657265
13.85,3.8993946214592787,-8.47596045626285
13.9,2.912043250235457,-7.49127903307286
13.95,1.9285863012771274,-7.943634595033249
14.0,2.310055946733767,-8.533415690261776
14.05,2.621353877769874,-9.2749500564377
14.1,2.761814640256263,-10.277989827428547
14.15,2.585480804070052,-11.772564947775882
14.2,2.828454036024611,-13.173554410563908
14.25,2.8553547437360454,-14.662674508676954
14.3,3.0751048234532123,-16.369643972786744
14.35,3.33248804849528,-18.004479701776834
14.4,3.759002826864856,-19.237582366535808
14.45,4.773374992394878,-19.63973262403609
14.5,6.620934231262201,-18.558438384511298
14.55,8.006780852385306,-16.807122500861286
14.6,7.826563446168313,-15.738615854355826
14.65,7.4195607422821865,-15.353532527505507
14.7,6.992480831542568,-15.587475016757914
14.75,6.292252554105448,-16.609306611700678
14.8,5.16117825851042,-18.318957425327117
14.85,4.574407043082769,-19.771756435813707
14.9,4.451697573789133,-20.741637821947567
14.95,5.062618369258488,-21.526107346142794
15.0,6.043903723932969,-23.157049777854755
15.05,6.1890652906084,-25.442736565149982
15.1,8.45487912930314,-26.117944384404023
15.15,12.157635487559082,-24.661693580075188
15.2,17.91201520537001,-21.278733278727348
15.25,21.198415892256907,-18.487598971308866
15.3,23.15593563090424,-15.440454842938124
15.35,23.4124994419294,-12.887720395329083
15.4,22.301605930723078,-11.574741283169985
15.45,22.01389573290671,-10.533767621061585
15.5,22.302221298359765,-9.360770864826469
15.55,23.487282542094487,-7.811127580101569
15.6,24.412283149913133,-6.379342018092199
15.65,23.331575782206677,-5.07965888420485
15.7,20.98690178640461,-4.122025264163782
15.75,18.039493467794284,-3.9715056145118215
15.8,14.654175329475892,-4.545244549826408
15.85,9.95940511477907,-6.105178985408828
15.9,4.798871179510755,-8.905550085627779
15.95,-0.8004431392160997,-12.818017045937541
16.0,-3.7242666856907287,-14.912519885083926
16.05,-5.023023439787919,-15.509159372450766
16.1,-6.8869571562303475,-15.5316363084516
16.15,-9.185845199268421,-15.811411513425492
16.2,-11.809590529185998,-16.43066215550275
16.25,-13.617838613858856,-16.91652131150101
16.3,-15.288898536247677,-17.302040132743944
16.35,-16.550874678146755,-17.491261869684543
16.4,-17.70394562883121,-17.80348159636891
16.45,-18.247617800214822,-17.82520807975375
16.5,-18.053602163278818,-17.63443533711065
16.55,-17.819246519774193,-17.63187806105256
16.6,-17.619273307420737,-17.560696531358165
16.65,-17.538960653927337,-17.90050116226264
16.7,-17.03979943261153,-18.545278294785614
16.75,-15.972334665367324,-19.119964341181138
16.8,-15.267070876438332,-19.626624387438643
16.85,-15.210318984389046,-19.741552636938124
16.9,-15.577752611805451,-19.179057153660906
16.95,-15.730678109566101,-17.87026566636044
17.0,-15.352774752862318,-16.570737722157297
17.05,-14.641995205894867,-16.078033433812053
17.1,-13.871725659878686,-16.530986248619968
17.15,-12.995359526019701,-17.084763781693894
17.2,-12.051886486030819,-16.803023934072108
17.25,-11.792385028954543,-15.45680532646679
17.3,-12.475950997549365,-14.00176602601066
17.35,-13.679294144053012,-13.322883888978534
17.4,-14.334490585101761,-13.154794329049857
17.45,-13.943069958536446,-12.761838286566457
17.5,-12.361383930959375,-11.881885893367636
17.55,-10.741068173334664,-11.471824622119675
17.6,-10.395365431217712,-12.414076415891271
17.65,-11.187147740057181,-13.488008964704214
17.7,-11.494798617904905,-13.112959622309475
17.75,-10.85670636698575,-11.400404209028572
17.8,-10.19121154606566,-9.50792788037144
17.85,-10.389233895776906,-8.450961605752106
17.9,-10.650526555082276,-8.259667208650898
17.95,-10.756741665905235,-7.824528781992735
18.0,-11.220008465791878,-6.747607132658418
18.05,-11.379919281285176,-5.104492842004381
18.1,-11.961096027384373,-3.86827974265426
18.15,-13.533224165530298,-3.3179940508756838
18.2,-15.541067244076999,-3.2091827522291565
18.25,-17.04113576844009,-2.8160834774885752
18.3,-17.225581317821938,-1.5213085521782956
18.35,-16.011396406321957,-0.12478109436583446
18.4,-14.528812071411961,-0.25984481689952876
18.45,-13.259133625122894,-2.1064478696662774
18.5,-11.918234406419717,-4.429186416805024
18.55,-10.580922358517705,-6.686230979816828
18.6,-9.365791712125668,-8.999543718388454
18.65,-8.121723934065832,-10.970597827503028
18.7,-7.363329269323765,-12.346631293019943
18.75,-6.930867691468924,-13.170252659451972
18.8,-6.195616526413537,-13.826540374386736
18.85,-5.116769758570997,-14.510029657766962
18.9,-4.287973603967973,-15.128681918572322
18.95,-3.9235354209983435,-15.782001357637023
19.0,-3.3785578204530298,-16.80041566177607
19.05,-2.3632632060717715,-18.16742867934904
19.1,-1.1850262599553822,-19.47559450627606
19.15,-0.19331270333247771,-20.261353076947714
19.2,0.34224220966260865,-20.267100910140154
19.25,0.504897803821399,-19.922129530363645
19.3,-0.3080246066178977,-20.25616601274584
19.35,-1.9003713773294821,-21.826287582628037
19.4,-3.2888854226546465,-23.864207449754563
19.45,-3.8175391102531346,-25.47943841169071
19.5,-3.3301387002152554,-26.175019232155577
19.55,-2.461418453484749,-26.315808483729278
19.6,-1.9304439501024868,-26.158230609415497
19.65,-2.256558426339351,-25.717196980266703
19.7,-3.2877524565686453,-25.050689348242937
19.75,-4.1982157593391864,-24.14332713392192
19.8,-4.442028012503384,-23.449907406386732
