Time [s],Flexion(-)/extension(+),Abduction(+)/adduction(-),Internal(-)/external(+) rotation
0.0,-3.5046753377531163,-0.37904375239790644,0.18790629422947067
0.05,-3.4784494814924187,-0.3769902830367639,0.22413255936899065
0.1,-3.442929612329305,-0.3656758094092106,0.2614237007353745
0.15,-3.434882652436808,-0.37001984718950354,0.29583047121631073
0.2,-3.4567912013280027,-0.4033596775883969,0.32772853441860766
0.25,-3.4688497282793005,-0.44232721165864175,0.35039779210655647
0.3,-3.634685094353339,-0.5996810438393152,0.437165050826039
0.35,-3.7004071381337895,-0.58063240512268,0.39912233872791464
0.4,-3.7175745099052784,-0.5509380421825989,0.3627821748156093
0.45,-3.69627764773249,-0.5074181266436459,0.347606616189101
0.5,-3.671180884810756,-0.517198996884817,0.4212085837234286
0.55,-3.6378771323008325,-0.5365130224693764,0.49864877702571203
0.6,-3.4125465360070275,-0.24528304520447994,0.5860626031080568
0.65,-3.0013980177331727,0.7411019374609633,0.5454733113802341
0.7,-3.437630313929301,0.6538562281860455,-0.456730968428963
0.75,-6.049700350762931,0.23145199482901907,-1.440788874502917
0.8,-10.429816547839732,1.4425283634527715,-3.046546136885649
0.85,-14.082111371152862,4.9304449131914065,-5.836764103251941
0.9,-16.388650103129706,5.826912660202037,-6.941099562839252
0.95,-17.395979718977927,4.573657957950277,-3.116862668481777
1.0,-17.617426517000972,3.7977406584483306,-0.43905422783155096
1.05,-17.12547624405892,2.2800914977580624,-1.2605156851051402
1.1,-14.563800535568527,2.3311716060885397,-1.3886024765136455
1.15,-11.38800191750635,3.035089854455222,1.0571079300729902
1.2,-8.32000049496549,2.8209698835599655,5.261727689319206
1.25,-5.894219787669607,3.7089190571938038,7.216712446536262
1.3,-3.831561406038587,7.150544660518595,7.800539824605679
1.35,-1.3461731255279668,10.752172402395155,9.033943884844852
1.4,2.22749768208142,12.856838717369472,9.862564369429775
1.45,6.203677812954568,14.151739784252904,8.52521409966339
1.5,10.151252611932785,15.3032438095217,6.8497338136171955
1.55,13.127537187731608,16.096865084889515,6.206102707139057
1.6,15.360260716750952,17.674833249117512,7.112552177495893
1.65,17.00171506946673,18.07870824570293,8.762021870322629
1.7,18.305864100004055,14.596177842162373,12.637774917607292
1.75,19.02404057697867,12.507744124035833,17.167141710042362
1.8,18.471469782741853,10.91837638857646,19.70328258787514
1.85,17.05047627657754,10.414476279409325,21.512269440182532
1.9,13.726419568216553,10.874984536394777,23.805839037135026
1.95,8.617931145468788,12.173687567839972,25.481893768420882
2.0,1.9718200869781342,14.993198908530617,26.51044165851849
2.05,-4.6473369940754745,17.149349417622563,27.48017713031444
2.1,-8.40617281353134,17.123479063753003,28.396262282306232
2.15,-8.311485818549322,13.43472017953174,25.513065646749254
2.2,-4.367107590150876,7.409784850995576,21.797912610717102
2.25,-2.8612669578720102,-0.6985581417428351,20.344594230584352
2.3,-4.215394635473871,-4.162297891686621,20.60664691777059
2.35,2.3455487988802215,0.9018121012451805,17.323837401054597
2.4,13.296122378071573,7.425101211809013,14.573177796662746
2.45,19.724271159100855,12.419124922468779,17.78403296685836
2.5,22.213660112702154,18.837618087844977,24.62051808795248
2.55,25.325994357942246,20.248331795303702,27.760616749429285
2.6,26.700828695423102,18.546439816551587,31.468967695373756
2.65,22.88216883544391,18.51545203651493,34.358312605485864
2.7,9.878542796199238,16.083414633480466,34.85232823276557
2.75,-4.664493528100148,20.289438465832838,36.61811897887215
2.8,-20.51426251838559,24.366712300215585,37.7892589037868
2.85,-26.955933049949273,21.509801011168673,34.986663633940175
2.9,-23.451766435186773,15.960417218948336,26.17458504513012
2.95,-14.159390034133617,11.41847080966245,16.330288514665735
3.0,-6.0034699097933215,9.28362823937983,10.61107245596624
3.05,-2.677252898836363,6.723569134736351,14.116274146548635
3.1,-1.6773293737999906,5.354380288604823,22.325111204772305
3.15,2.1639208976538313,5.526565961352331,26.645729046450203
3.2,10.163635114084173,6.520181378295205,27.36087061039985
3.25,16.67327059803465,10.55114224155192,29.572124471057116
3.3,20.986958319570018,16.94119110190126,33.73716657989682
3.35,20.99562025778043,19.42957914451694,34.47977658852916
3.4,18.82397536258011,21.44225294596637,33.8331692637895
3.45,5.311218545564153,21.76037640973986,33.126393099681046
3.5,-7.99040402972246,24.55042009009512,33.16409604478772
3.55,-22.26733642072089,29.376157001898395,34.159157430881436
3.6,-26.31691703788242,26.97991875147554,25.82608206704228
3.65,-19.566076706026543,22.420856536422185,14.954513676754475
3.7,-8.199574522998587,18.069535404978094,6.812219280770083
3.75,0.2813857684030207,14.884329797825561,7.911561636547227
3.8,-3.434364445730052,17.440532353481572,16.540212280195803
3.85,-13.496237838311243,23.516521635429953,27.162960750095916
3.9,-20.12041972364871,26.916772563340924,25.74959402342073
3.95,-20.09186784464719,29.6905198303456,17.814026709917464
4.0,-20.122537404577464,31.478933180810277,12.101523988733998
4.05,-24.219762847158563,31.89282046794156,10.450090792451343
4.1,-29.05768674296887,32.54329446848664,9.600966844243699
4.15,-30.268452981037356,34.78018002083796,5.627249354592068
4.2,-32.738278821185276,37.78913628247338,0.08189955928355279
4.25,-36.56696451914882,39.17733994610625,-1.726283203855266
4.3,-40.68727439967056,38.94673084601673,1.6215751002079615
4.35,-45.4125477013658,39.381076817153556,5.946192722944203
4.4,-48.46163727330962,40.74513395578929,9.764657636941598
4.45,-51.20231592598573,44.113166501520816,15.998625936601062
4.5,-54.12444914774404,47.31177737833702,24.485365795079723
4.55,-57.87166965519355,49.97770215450661,35.09103381588164
4.6,-66.60148899086963,54.38386821313359,42.6546930885575
4.65,-73.34002716315824,59.571053119813214,46.60374700449313
4.7,-76.51462329237982,62.26716440622973,50.81173681233297
4.75,-79.43003835711158,64.28363696859202,55.319434711925105
4.8,-81.24400762899556,66.22045230682296,55.40154047558887
4.85,-84.99624854288011,68.57473885020521,54.78310432284281
4.9,-88.80909954753001,71.96555598165699,54.95894392739296
4.95,-91.658924144242,75.43704668171031,54.35888150579462
5.0,-94.2467270544278,77.4632092023095,53.21171576966628
5.05,-95.46493419023847,77.67373064189987,51.01460166304849
5.1,-96.50638384248343,80.1389160918313,48.77510096638728
5.15,-96.17985062576574,81.41428242833517,45.01161309925992
5.2,-95.53441799840925,80.89403946977721,41.570142144233316
5.25,-95.23090335864161,81.18810842685201,38.378314014543555
5.3,-95.31949634863477,81.16233719284315,37.953159344881215
5.35,-95.73806461961753,81.06723454110941,37.54150666051578
5.4,-95.62706295529732,80.73269285704323,38.821066388879295
5.45,-93.55397569843568,78.53431227695222,41.87530023051659
5.5,-92.01362266761166,72.23422143137138,40.62205982112767
5.55,-90.45808589742411,55.11659284893272,40.28904982748302
5.6,-86.95105727982275,33.44652370623669,48.87625268077482
5.65,-77.59592303971888,20.761662983825865,49.42733336964852
5.7,-70.0085329386909,12.99791580085026,35.8095293464008
5.75,-66.39537763775495,8.869621912917282,16.17989703011734
5.8,-61.93067393524661,11.301946587527034,-3.5110209760267486
5.85,-60.508836468407786,12.999534418241295,-20.436691679763932
5.9,-60.92003523181227,8.594932804371314,-29.519356972175025
5.95,-57.74605335076883,4.91350621010215,-35.43475704602341
6.0,-48.79769496337094,5.2400519909630185,-35.597532964593874
6.05,-32.37060052637933,2.8569617187772574,-21.518483871467446
6.1,-17.77934998163369,9.162939623712347,-5.020112669279543
6.15,-5.204335460654363,18.6031789784803,9.410087916412582
6.2,6.789943884104464,23.646427861653923,17.167277244899164
6.25,15.772625129593694,25.654167465074472,25.10190107953117
6.3,20.835824730396574,28.288732350097508,36.5455199055651
6.35,24.696993749919198,29.914214530373535,44.93487766296709
6.4,24.87562479603993,28.77699686762969,46.39679593257228
6.45,17.396862126194915,25.87994432813464,44.0399557403477
6.5,0.713605646999038,23.873145174820657,42.47107856585923
6.55,-20.992623575760245,23.98313685992002,44.21851538943696
6.6,-39.711653511881465,23.89661040200114,41.97654377784022
6.65,-46.89247231239652,24.753132651280517,32.12753285254708
6.7,-47.09704613188378,31.95743463257068,23.424879756231622
6.75,-42.180934788086624,40.394338803773664,17.694839649900825
6.8,-33.52695617363593,45.290427096507294,14.144224276023214
6.85,-24.456255802296226,45.602022687697755,12.956751558237512
6.9,-19.349742691261817,42.10380502348352,14.439480354958846
6.95,-15.259521728193072,36.17426128444501,25.779076836935143
7.0,-2.308494846387943,31.13642825301628,36.24411529854755
7.05,17.82969982933564,28.770031352935803,40.18030896666906
7.1,31.349247557075554,27.69458582363832,41.60423823473517
7.15,34.883033765830625,30.293197403759656,40.841493479662375
7.2,32.88970092563905,34.64211880369316,36.67238853727051
7.25,28.142775197213208,37.544387312678666,33.32818119786858
7.3,16.840761901903054,36.64418766711962,33.81606471151373
7.35,2.670106475070317,35.422577773585786,37.335847860792825
7.4,-18.4584961388721,39.43065735674528,44.934456660319114
7.45,-34.700361446606394,38.23660380390854,43.462324325205515
7.5,-39.44048566978573,31.836658322195667,38.79438599977915
7.55,-39.54734911948019,27.16583283387828,30.371726410825765
7.6,-36.2958728789713,27.529753260304414,17.195592207663438
7.65,-30.03722987105489,30.1772423880527,1.3417041220319954
7.7,-25.52832407359642,30.42959384170571,-10.00685438305916
7.75,-27.44999988532427,25.841265577194935,-9.90549002647919
7.8,-28.00983155233439,21.854549097889514,-5.118461850446964
7.85,-21.887980264271917,17.782987156418066,-4.057185428041857
7.9,-11.172065507115358,14.885916101635441,-2.9709837091442477
7.95,-1.744885105441056,15.748106305846246,6.554992614881335
8.0,5.955295818966764,17.82380258812006,21.360100241739428
8.05,10.611856053906378,21.86123205448927,32.61309561111473
8.1,13.877070547642994,27.78587773594161,38.32520864144525
8.15,12.118615891900902,30.905285458407565,37.67809386115665
8.2,7.4612698493705745,31.90070204095311,33.449052498754355
8.25,-5.377634717165761,33.958450308272255,39.001455943788876
8.3,-24.076979591339132,33.948869891827016,46.82257985558518
8.35,-34.42134520149298,29.11040724188938,47.89595506790636
8.4,-37.35683816044235,22.228283351392456,42.09609447329772
8.45,-36.05772593274566,17.142660452117024,32.18616843203204
8.5,-30.411618033673793,15.371295091943855,17.439688166353733
8.55,-24.325834544885947,12.55205007806809,5.686577780339294
8.6,-21.003327508333,6.409961258393407,1.722191402301079
8.65,-16.258148502485337,-0.9997346248056189,5.7999257112354945
8.7,-11.790664668403528,-5.9207181841639525,8.800028686127927
8.75,-6.995503413996208,-8.445807671426456,8.51474197649468
8.8,-0.6585686886668899,-8.320123893573472,8.000004751164672
8.85,5.150407170489642,-5.088424906437006,7.908800432953465
8.9,9.043152263085794,0.12933223835204322,9.450054920852176
8.95,13.052217495354885,5.950333718805487,11.544926032162266
9.0,17.263671231912696,10.521713574352031,14.940613562465948
9.05,20.921604777403953,13.030571630041127,18.258139518308486
9.1,22.057646508965227,14.755970997034055,20.9120299208076
9.15,19.342197000351803,16.629572042477857,23.46029237995609
9.2,9.775636932940118,16.51868455167843,24.114690544125313
9.25,0.7019318800536363,13.997346846950286,19.536391489313274
9.3,-8.268126093291228,9.572994524374298,15.57125395233126
9.35,-16.649010235474396,6.2081581944935875,14.291082080307877
9.4,-21.628007403920016,6.986204236964119,11.189510959369695
9.45,-19.73906623242118,10.844247848518554,5.327439608218291
9.5,-11.48947632532227,14.152616534799584,3.214290175370538
9.55,-0.31006507291451135,16.616488008388774,4.266875239333218
9.6,2.287440476648629,17.39236051273246,14.23403711732277
9.65,-0.5692918828034794,17.869727002212176,26.601423402033944
9.7,1.1430089148946476,19.567865364668386,33.45589150536656
9.75,3.106845980503179,22.238246067132422,35.418395985630035
9.8,3.387365725055481,26.334047814823492,36.10823847204212
9.85,0.5761819673877393,30.398022246575078,37.49245032911089
9.9,-0.9768975626420732,33.884818401820816,41.06559990297255
9.95,-0.5335411935582876,36.57845838649554,45.09071132058831
10.0,-2.7035408415295175,37.802277427603094,47.64334371805921
10.05,-8.891649171132398,38.7487993953457,50.021798802856566
10.1,-17.3310329166893,36.90420610684136,51.36362228001547
10.15,-23.62944183169575,34.70408832040256,44.974140242066824
10.2,-23.11819955574921,32.37659595028954,29.157589826618306
10.25,-19.2232166777963,28.409309325921804,10.23600961426396
10.3,-15.087477042507716,24.225345469701054,-8.233883682624665
10.35,-12.441141572480062,23.391674945137307,-22.85281619390725
10.4,-10.223523329343866,18.77652479113091,-26.467072745780087
10.45,-9.960801687056472,13.963878818191574,-21.551919637397805
10.5,-12.69954654004648,13.174376405469815,-12.326961119903329
10.55,-16.346837404137997,14.563845868648484,-6.236560761383388
10.6,-18.43976862685901,17.263991302519116,-2.459231837464612
10.65,-20.74907797509777,20.566295233770678,2.424032599163237
10.7,-23.193091633388118,23.679217703537113,7.367393136902134
10.75,-22.857998453140866,25.801509466019848,10.764657860905565
10.8,-20.427513045142774,23.607359517244102,14.809153354330869
10.85,-15.393144592044486,23.918990474273297,16.91677461203775
10.9,-10.046123512683431,25.1347317873781,19.852856468917967
10.95,-5.041766374122148,23.78760881273782,22.50182001582214
11.0,-0.6694126832473366,22.464218628812663,22.841552295857582
11.05,3.0000090055340722,22.20577054205521,22.167521884842984
11.1,1.773580778742098,22.03618038848678,22.23490916086161
11.15,3.5571977682413345,21.68542194049437,23.710819321792375
11.2,7.23270814646753,20.663903627718955,26.267812320209163
11.25,10.747785116991805,20.656766563941844,26.84662194708642
11.3,13.492598827077524,21.538054885936887,24.049110119123966
11.35,12.938575378448999,20.734729503165198,19.864369221753176
11.4,9.334595916709414,18.776567763788606,15.829517554321436
11.45,2.932920803717821,18.22836072891076,12.506711126989359
11.5,-5.79942324822503,19.630435983135865,9.751035569708193
11.55,-14.955293451755045,21.600585124010582,6.2308119871397984
11.6,-22.296239250498008,22.768882959493226,0.060372330904192716
11.65,-27.513151581203168,22.53428880407285,-7.029525568573736
11.7,-30.441410995814742,21.51592927838799,-12.47865795285555
11.75,-29.77873180862881,19.291851388558857,-15.269869814222282
11.8,-28.80064314412564,16.217002202698673,-16.33971292474521
11.85,-27.365958938319938,10.850918293042415,-13.816804626619351
11.9,-26.089417532962006,5.727315063780061,-10.722714534187302
11.95,-24.401866808397163,-1.0233811767716152,-2.8303301756057495
12.0,-20.87698051013013,-4.150975584503962,4.177442784933619
12.05,-12.347312116641652,-1.6781846748803042,1.5142966389283927
12.1,-2.532391934351123,1.5020141017114361,0.43100221753922074
12.15,4.84657254515726,4.73823223931308,9.353730145145589
12.2,5.336920713956294,9.367071991914003,25.59387940128694
12.25,0.5919259713533609,18.137239074844903,38.969325060364085
12.3,-6.347333916296379,29.626753836858285,45.95713907314494
12.35,-14.963285027501255,40.49209383851458,51.86082114230596
12.4,-27.56275129651802,51.362036920020245,55.874040642524704
12.45,-47.22465671716189,58.71641100614008,58.608684399487025
12.5,-62.66493465834348,62.046053411372036,58.83909015139766
12.55,-69.75677004108647,65.37068211786318,59.6055557147373
12.6,-71.52718670010398,68.32935014984287,65.87688710078643
12.65,-72.67725855483569,71.61122877917708,69.16764335093889
12.7,-76.25056334309889,75.727610986556,69.6867890832182
12.75,-80.28691810485124,78.98176045862263,68.02423467130514
12.8,-83.3800304564926,80.02306673287863,65.43324318730154
12.85,-85.44470127793682,79.34793461920677,62.39068489470107
12.9,-85.66994565477222,77.1734028900799,59.86759623329102
12.95,-82.71797183436814,71.67785819358699,59.70921203098495
13.0,-78.64620996245566,61.52646723508449,60.15364381486771
13.05,-76.25202466630796,50.75341318519896,64.07337142107883
13.1,-68.51151202464035,42.463369337900396,60.00307161968674
13.15,-59.24794709028156,40.969981453027955,50.904662832677694
13.2,-45.82597905380169,40.53032113876589,36.66743185339666
13.25,-27.839021951627004,34.60565961922925,25.470845604721198
13.3,-13.51208807770304,24.922487058220934,21.89828514734526
13.35,-5.343470834426342,12.77396621840114,20.96442769825881
13.4,-5.185574001936038,7.319608894516478,20.620113355774276
13.45,-1.4827072221749857,7.995438306842886,22.183842815607566
13.5,3.068555458531379,8.720450589224091,24.093078981792754
13.55,6.104307643327766,11.101698058821336,28.26572204392859
13.6,6.4727531374741,16.114256977380016,34.20707551674917
13.65,3.5272424452217717,25.931763891650842,41.09552338187245
13.7,-7.81297255044924,36.94427925006249,44.51179858765024
13.75,-26.573510427131378,44.076706230683556,46.8826942664234
13.8,-48.11534718174034,48.18050156270437,50.94205243208308
13.85,-62.15946830226246,48.06839416689291,50.09049969857849
13.9,-71.90354075354225,47.90621681461334,45.57398991430551
13.95,-81.83917851473471,52.855942474910655,38.14171568941647
14.0,-93.05329005495334,61.10873124860501,33.7889357281995
14.05,-103.32865142210571,69.55365291017125,31.873414179004858
14.1,-112.08929454561594,74.23823128699307,32.60363765871609
14.15,-117.8850349702628,75.68222400922625,31.199538105886273
14.2,-120.17968339163296,75.41003600746775,20.779816616191802
14.25,-121.77447498006092,75.44363866185773,10.390544501129009
14.3,-122.11141569214824,75.44237498606117,2.5439558583315045
14.35,-121.12932297749072,75.22432891160652,-6.116859042219998
14.4,-120.11531708173146,71.68169180081524,-14.969049594326673
14.45,-116.27880693098763,61.64503269075084,-24.027582016730296
14.5,-108.93592009536304,52.66125471106566,-30.073290726591782
14.55,-95.97524129019271,43.44455420874523,-33.963592532282334
14.6,-80.22714581892002,38.75986478557687,-31.243668656894428
14.65,-64.16951703739514,33.931231125751864,-22.73836381439849
14.7,-45.470482632603755,28.787682561753122,-12.015385625531326
14.75,-29.163131529739644,23.295234966103884,-1.1563978420209045
14.8,-18.984719416086264,13.197390473360114,9.662039915939667
14.85,-8.209162294966438,8.631796188443316,23.719817346273178
14.9,3.682999649133806,7.470048391721289,29.778290137313547
14.95,12.078314769598151,6.701851938300901,31.469068306252282
15.0,15.895383031267265,8.227313672017871,32.58778276263531
15.05,16.260986339688433,10.902931520327055,34.029122966133706
15.1,13.94065374052528,13.879850929261222,34.659836562613044
15.15,11.231301698723453,17.394486068918884,35.99894685613762
15.2,6.426837987499242,24.49582187675498,35.48604958720607
15.25,-0.9050313818644502,33.21078571372744,32.0320125775384
15.3,-11.25975374816404,37.59858844433121,33.688317893249454
15.35,-21.44650403545994,38.001103138344256,39.85076094768703
15.4,-23.81505165166733,38.441315093538755,43.29582101675154
15.45,-16.468756058226383,37.405426034710906,33.00235979767493
15.5,-4.4953180891573155,36.30182205296427,20.415850508565246
15.55,5.462739773830426,37.56281412939722,13.536388865302488
15.6,9.117515366360323,38.490194760383545,14.365612074895012
15.65,15.023039630944902,40.19972338982842,15.600311167436802
15.7,23.161643861698376,36.128327139837765,13.128154094285646
15.75,30.319822406776304,34.10353905551085,14.660962801663853
15.8,31.523464196422374,35.9726485100617,19.331760439815827
15.85,28.823372985903394,38.47785164541816,20.672252332777372
15.9,27.458136304781366,37.66545327317214,17.23131305458486
15.95,27.154355621896116,35.802135677892096,13.243612092605947
