Time [s],Flexion(-)/extension(+),Abduction(+)/adduction(-),Internal(-)/external(+) rotation
0.0,-2.1273846520874153,-0.037365453802815224,-0.7671994801270439
0.05,-2.188212384668816,-0.04927068123541304,-0.7635185839260842
0.1,-2.264634397544854,-0.05544829120915852,-0.7564849057661557
0.15,-2.3224104202815545,-0.0646914656433081,-0.7706487184706097
0.2,-2.389709775644132,-0.08721039621023624,-0.8035475581293896
0.25,-2.4524265149674855,-0.09632785461215412,-0.8086004896327953
0.3,-2.5153924177056943,-0.09147579900613928,-0.8133192592792005
0.35,-2.590645874749538,-0.1145558840287908,-0.8193199734852414
0.4,-2.6609851838756495,-0.1479017580282911,-0.8359086632448368
0.45,-2.733817306624108,-0.18363990938402103,-0.844978559519599
0.5,-2.8213135031328602,-0.23357631585590727,-0.8396607989580794
0.55,-2.9758736897837474,-0.21782226641656277,-0.8302027978492423
0.6,-3.7090074783567064,0.05798539713155087,-0.9967192561581986
0.65,-6.604044247454338,0.9089983423707486,-1.9945120983395561
0.7,-12.418899313403374,2.476089546953537,-4.13065561641994
0.75,-19.358678991735044,4.193542003583228,-7.842434945474768
0.8,-24.631275639006066,7.229386065625914,-13.837799931943119
0.85,-29.666608981929226,7.934883765775516,-16.86509094049549
0.9,-36.45621179725858,6.15236277272079,-17.18339095718966
0.95,-43.75631045588808,3.7978278246930883,-18.331590434515597
1.0,-48.56526865302034,0.9552608237066321,-18.650501679232267
1.05,-49.221579946484354,-0.4204375096743777,-18.400137954664746
1.1,-49.55587473666583,0.38126585790232864,-16.75317533230627
1.15,-50.43662934449786,-0.8119730119840037,-9.150491897046006
1.2,-52.4477899726261,-1.4219096697607245,-2.2711966848705356
1.25,-52.322089398063724,1.8060039015832086,-2.8824928712339597
1.3,-50.24263374805931,5.822401060196857,-3.0300786461401774
1.35,-47.87626731594964,9.309181201671569,-0.43160343013552427
1.4,-45.39210486768511,11.568533338371628,0.6614948453084128
1.45,-43.645114382013105,12.10450699214999,1.8847660031348632
1.5,-44.644738848267636,8.79698257360257,5.648866179470753
1.55,-46.43081657047798,3.2272587620864113,5.634949391051407
1.6,-47.2842745996559,-1.9213098969563935,1.095496473583388
1.65,-45.348832320806046,-3.676966486008591,-5.927563537626248
1.7,-42.899310830909776,-3.9604607662369276,-11.00336505104648
1.75,-41.999242412478885,-7.0571745839831195,-11.243844227604175
1.8,-42.31784133473112,-12.261963831391189,-9.690817095182508
1.85,-39.62474141213494,-15.150363145740805,-9.972040827498654
1.9,-33.8192875097442,-15.52700845516951,-10.673843587640842
1.95,-26.457878451711352,-15.01487518105002,-9.786264035351266
2.0,-19.683673487345978,-15.450214891446315,-8.239878516590492
2.05,-14.369824589966381,-16.321646571147888,-7.2695196120750705
2.1,-9.036264543803613,-16.974522206835925,-5.3078249748629815
2.15,-6.232454362346556,-15.174861801389845,1.2926139958175296
2.2,-12.251857267343171,-13.013069909008241,7.227959058804713
2.25,-22.300076726854478,-8.19512558042214,3.8353776028618842
2.3,-26.43778796945853,-0.7019447319052802,-6.148511206834289
2.35,-32.905006720882135,6.166742408313431,-11.149169289998282
2.4,-42.371485768237235,7.8340718335507855,-9.787483783450107
2.45,-42.344368759548246,5.479131671720922,-6.9456117873560945
2.5,-33.18180315519843,4.137633995760591,-6.686566045119494
2.55,-21.55198907371909,4.359518856350138,-10.984548342249463
2.6,-11.655527919325623,3.562365698377883,-13.514272746763604
2.65,-6.287028200274911,1.49839848140232,-8.471840752873643
2.7,-7.441826356388561,-2.436517458463099,-1.4030877468134837
2.75,-10.085389633014248,-7.904120046861637,0.6151700565642052
2.8,-5.634226793318614,-11.497664496774993,2.4067169406004485
2.85,-0.08510684892417063,-11.534282006431692,3.3977089192515098
2.9,4.0114638617978144,-11.277018967030296,2.5936942450200604
2.95,5.387922964251058,-10.891498564803143,5.161345913212162
3.0,3.0465578378754823,-6.901575623039757,7.06456388083744
3.05,-5.50711625791656,-3.600136229857341,6.288175704257849
3.1,-18.019809982253353,1.9773986279317588,0.915287288017388
3.15,-24.51295447608147,7.816364021027135,-5.390957568620699
3.2,-28.901745951789913,9.556620658298764,-6.633359766136963
3.25,-28.965990885456776,6.102370458176861,-4.1206771643566045
3.3,-22.054504158523724,2.4392202847881754,-3.8109051460573893
3.35,-12.10295113276656,3.1153708031686462,-9.132176534187698
3.4,-4.478921438780126,2.2085572522654227,-11.57187414917289
3.45,-1.5758105927310921,1.581993344571279,-5.432532658590723
3.5,-9.764903537157952,-5.920498144455508,0.19894751416927653
3.55,-5.467202554060239,-8.761415771860388,3.5873056759853807
3.6,0.4382857938265843,-8.8332278882763,4.755698432120101
3.65,3.1905823414999794,-8.689438243961863,2.492049072064122
3.7,3.140367316454352,-7.4842655388449035,4.107739871137726
3.75,-0.5276652881959235,-4.535683674325436,7.7683266780313565
3.8,-8.859055372651833,-3.3226112965226116,8.603396960651954
3.85,-20.144994062679817,0.6126286454607486,0.5187357279027054
3.9,-24.620799180787994,7.968060282461976,-6.400561768897033
3.95,-28.38488779636047,9.240390339444478,-4.65872724508982
4.0,-26.808419030457088,6.162549414742748,-1.4599535553435514
4.05,-19.945026381107294,3.9883430620461646,-2.678082771606274
4.1,-14.688078836477072,1.1583099726218566,-5.332651187930864
4.15,-9.085015636183568,-0.9269898303848402,-0.0711170794327807
4.2,-6.556562244633287,0.9142930349520236,5.755541572341791
4.25,-6.643388644678353,-2.4947490156558385,5.7381148918092375
4.3,-4.865330008189446,-4.435705634091714,3.0753615446736915
4.35,-3.0762938301198184,-3.593408983601014,3.1876619236606696
4.4,-2.0553464542611173,-3.204032142495619,5.006003278423336
4.45,-4.437428148067435,-2.134546971026188,3.9284197768108684
4.5,-10.81366564880312,1.8341482066133288,3.7836952168662603
4.55,-21.524693823735152,5.08489834580724,8.67857506075327
4.6,-30.881360841338633,8.424776265785466,12.360117432788327
4.65,-37.716410258432724,11.376176168916588,13.155828453914122
4.7,-40.28196997043386,12.259507132942769,15.020055679945159
4.75,-35.94178564726459,14.433355966525902,15.247337879213926
4.8,-28.063062013614445,19.904980012981486,3.9350548465536495
4.85,-22.873753083119187,21.48054933030743,-2.68527024688387
4.9,-20.311851499520674,19.975499914725585,-0.8913564873758122
4.95,-18.54735905342101,16.236284744650472,1.537574862407736
5.0,-18.17554808282248,11.804573793383863,-0.555732346218808
5.05,-17.637766686973354,8.227463744643746,-2.1288654187161775
5.1,-16.192613271998738,6.810772735525232,-1.5474690895879872
5.15,-16.101272838925723,6.316725710936723,1.1289729222315634
5.2,-17.093052527916385,4.377680617382759,2.8834380786472833
5.25,-17.656483610268978,1.973520566852945,2.257828933481836
5.3,-16.029304206722895,1.2151017944613212,-0.9246474378276976
5.35,-14.640188680130587,0.4723831058914095,-2.6059917951534897
5.4,-13.261714391911786,-1.2238397962181584,-0.15101867485170128
5.45,-11.543361588679359,-3.7993053515927624,3.0593510462936226
5.5,-10.521547243342974,-7.030006163036383,4.320901414056067
5.55,-9.602474802658167,-10.033774298758697,3.720439767679671
5.6,-7.05275159943996,-11.660267759826437,2.762093724464457
5.65,-2.234952031322164,-12.174472169028304,3.8697611260870772
5.7,2.9378206422946276,-14.059662442660654,6.220737894937098
5.75,6.638906570395971,-16.5666933668075,8.408171754115507
5.8,8.926946956930045,-18.01999195726101,9.31320287280213
5.85,7.746596992462818,-17.753781022358137,11.30115767649521
5.9,1.5844204345968282,-14.012129525161164,9.175819676398305
5.95,-4.235441982290309,-7.13359418062385,3.849325019562976
6.0,-12.033097144629796,-1.4709668116331158,-1.8540040484478064
6.05,-24.256036253736024,2.824271707601873,-5.936739572219558
6.1,-34.82437114839656,10.05691403335109,-6.925269096686334
6.15,-41.696688041092486,16.49953352349166,-6.497965191783137
6.2,-43.35856029260471,18.154243980300453,-3.0361613260006557
6.25,-36.967548062130284,16.23139893437559,-0.9834725159126201
6.3,-25.269391517668506,12.867445501890202,-4.551729291915756
6.35,-13.000039669668105,9.083623266868877,-11.171060594167056
6.4,-6.271985458642141,6.835323664780544,-13.000099969194544
6.45,-3.697901813652151,5.531098001219527,-6.3480579458083435
6.5,-6.989309063357789,-0.9894480523999127,-2.5247136615963806
6.55,-5.681722559548133,-4.514725023714251,-2.830984838620245
6.6,-0.8575924124797946,-4.522785702705326,0.8058199295740675
6.65,2.592292855931296,-4.886168009906212,2.8169436901207487
6.7,6.601343432638983,-5.823425818610177,2.7744607017651517
6.75,10.148925675639022,-4.437054662796122,6.769250117779588
6.8,9.85865337548586,0.6548470048605307,11.8507638140564
6.85,-0.05714125052194979,1.9324835875094764,11.006410230549525
6.9,-14.234092152981972,5.128109266385497,-1.169817023158633
6.95,-22.1234455029736,10.10432314112176,-15.284619277252656
7.0,-29.143196831264202,14.122581068345903,-19.73060460237886
7.05,-37.14448465600304,12.868385174840183,-15.79347910038892
7.1,-35.88473805198745,7.768704864275092,-9.854914465685706
7.15,-25.333113112003666,6.564231662086255,-8.044806172349698
7.2,-15.406336035751355,9.875552071207647,-14.115595697559087
7.25,-8.313590662151237,12.598473211419053,-15.336101783998458
7.3,-6.554670333904405,12.981801322630872,-9.300226970493
7.35,-10.98536773952568,5.071102304948337,-3.4888857232339965
7.4,-6.730049268885263,2.353205659636207,1.715571011244946
7.45,-1.2038068079661894,1.486360381473073,4.22806533429482
7.5,3.0108908642442533,0.54359741267646,0.20907209666971724
7.55,7.731998385781712,0.6214335628920602,-1.2509283772830349
7.6,10.283605237142275,1.582633080330141,3.9117344549820565
7.65,8.584680026026515,4.159449526129698,10.120298126599936
7.7,0.11928347489915844,7.338367715570883,14.375481911723162
7.75,-9.336135860838953,11.078617348640494,6.271629417659526
7.8,-15.4388412840844,12.198317477529633,-6.353929092348714
7.85,-18.38018060031278,14.560218058391913,-13.70506723764432
7.9,-21.326082815669874,16.49439198332362,-13.382867192547955
7.95,-21.398228497289512,13.69945779611405,-8.808448342626857
8.0,-15.792416090183755,9.544880097450774,-3.6791294428601238
8.05,-5.98491703374362,8.971823993048075,-3.248183150878793
8.1,0.8709420213127872,9.275711679484361,-9.341451408628219
8.15,6.636801458660258,9.368046426169435,-9.785454295350636
8.2,4.147747045599206,1.9651386695078843,-2.942487846135462
8.25,4.62711267122489,-2.927743379083445,2.320712622171607
8.3,7.186938858528505,-3.2625412350682903,3.3270701339920064
8.35,10.036538832772955,-3.424450438500878,1.8097436973481313
8.4,11.588130493280268,-3.3748708761814656,3.9112558490745792
8.45,13.745120816088308,-2.362680533962021,5.914468753432091
8.5,14.501414237467975,-1.553392339395537,6.484589940286511
8.55,11.626220452312358,0.7471366446894132,6.742787642268512
8.6,6.138039437044546,2.933528173731394,6.795377626356623
8.65,-1.9043032152731987,3.888587433381756,3.70069172723058
8.7,-11.002946705352276,5.990690893866978,-3.8010254333571436
8.75,-20.695470144971342,10.056549473871344,-11.283105487949927
8.8,-31.965554146918414,15.135563520502592,-15.953165992238727
8.85,-43.62175552926754,19.85657134791576,-16.38555204766478
8.9,-52.24670020336817,20.494809596134495,-13.989419001983375
8.95,-54.90373080782129,16.639740370377588,-10.164563737663343
9.0,-50.09592961086971,10.744123954789453,-8.34086158043934
9.05,-41.55708799421046,3.533233709066751,-9.40154639480633
9.1,-33.33491746137575,2.6258623164069905,-10.50233331810723
9.15,-29.04701319016085,2.7513809600352994,-14.190551868265704
9.2,-25.914779883043117,-2.0405780089687986,-15.683049172921999
9.25,-24.173382796398915,-6.802277050854613,-14.675348249216622
9.3,-19.908137746491505,-10.6152893628522,-11.781017172154696
9.35,-13.237288887422123,-11.21083562871624,-7.007405963458955
9.4,-5.67196768600235,-9.64481589325932,-5.375525768291734
9.45,3.943036250877952,-8.526084761483162,-7.23655484918571
9.5,10.763665293544108,-6.95895993301602,-4.303409369916623
9.55,8.688784165629885,-3.43161717461055,5.375450091073146
9.6,-2.891605079083821,-1.474727480113713,6.322174867911881
9.65,-13.640258914566024,0.15274383427670982,-3.6057506487389235
9.7,-21.79517029107335,4.3442807708624676,-13.486264055050352
9.75,-29.04349566330598,9.611988934623225,-19.427122040439144
9.8,-32.7830800808843,11.996350949820442,-21.3654198113989
9.85,-31.705051337839286,9.838992012458935,-18.252722720374965
9.9,-27.258409251772537,6.701204775646305,-15.859716736854013
9.95,-20.148775058247914,0.15837648211325397,-8.951146725622783
10.0,-16.6637694991252,-0.9720669223766794,-6.541856847384911
10.05,-18.103634950473015,-1.930381508175774,-15.995100229426948
10.1,-21.01222086185759,-5.680837342753112,-20.767680247488087
10.15,-20.48788020691683,-6.543081150132201,-19.091502679143616
10.2,-18.0958669745307,-4.745483862624461,-17.509614587460945
10.25,-14.047103013196057,-1.9716777515191697,-17.051588535662958
10.3,-10.885207190008387,0.834739205225236,-20.62943503297036
10.35,-14.03444017647905,2.1533729059441447,-26.56990220416528
10.4,-20.786776668653278,0.8130323575893307,-26.429043314292684
10.45,-25.840757959728606,-1.299022595269932,-18.737138464140546
10.5,-27.711775999254915,-1.9739546624287179,-11.121488164131527
10.55,-30.250937732436977,-1.1873220233432387,-8.964816750291892
10.6,-35.28962998510212,2.7280917586549718,-10.378392230783204
10.65,-37.54464115533152,9.30895858260762,-11.55235949036665
10.7,-34.745603100096105,14.176910922928696,-7.190145852279107
10.75,-27.891299154946378,16.86512594455156,-2.975382971363863
10.8,-19.456912158731285,17.608112427120567,1.908571575901124
10.85,-14.22711509425468,16.28791146776815,6.43831887797488
10.9,-10.127129709887413,12.517400528553788,6.13979850279695
10.95,-6.8743622639336,8.760075776837784,1.6554748498701135
11.0,-8.59268564863173,7.044415830304796,-1.6334475553761083
11.05,-12.197866579654145,5.28222567557356,-0.9774203934924065
11.1,-10.71472595273502,0.2002032599084411,4.408278749049911
11.15,-8.994419097638612,-3.1055262148073965,3.0565973574355634
11.2,-6.480830378046437,-3.1661562566599355,-3.859799197226593
11.25,-3.7022366661651938,-4.639740327349988,-6.872299583106439
11.3,-3.2018665160722106,-5.55429240165504,-5.584603575095548
11.35,-2.548069725564801,-4.755168084504867,-0.5864495216339484
11.4,-1.5366435650946384,-3.429629147555824,4.858745490478071
11.45,-0.8447957182702722,-3.2606681119210905,6.705380098369539
11.5,-0.11573116696465942,-4.267682750518372,5.233756845448576
11.55,1.5996793515473575,-5.507865364091663,4.291346717992866
11.6,4.979902080469254,-6.969286805413523,5.655134390827192
11.65,8.94096548926163,-8.287255522627516,7.7894203078753605
11.7,12.093223579038302,-9.309142348269718,8.413226275580696
11.75,12.092788350027972,-8.91009936639651,9.260704941434327
11.8,7.975177051962761,-6.56942246043875,12.178087074318531
11.85,0.7277152224046585,-2.519738395783324,12.852552618526515
11.9,-8.361098962278817,0.27823753593860623,10.248781991344634
11.95,-19.69500197740038,2.7315659757843473,4.626396950176069
12.0,-30.88840541399995,9.204907276120306,-4.043129448772777
12.05,-41.30210141288522,17.21016876196345,-10.818347114501446
12.1,-49.957395802766925,22.048019748754278,-12.819985842395853
12.15,-54.89521411744033,23.242403237364332,-11.780382665870965
12.2,-54.86318941491113,21.996412548333787,-10.526067601760785
12.25,-52.35302225732855,18.9197946510622,-9.844250045033862
12.3,-48.76024464955638,13.203969167208205,-9.245776630005071
12.35,-43.59877180385083,6.647377224679884,-8.23223877849554
12.4,-37.1460554217206,0.289768711915,-7.269399515932519
12.45,-31.992349311377335,-3.46292141580289,-12.601057542947212
12.5,-28.3535978864321,-4.393918164483739,-20.26495614092415
12.55,-22.38795547414099,-4.496222386839007,-20.773179520868034
12.6,-16.4902697744965,-6.160113038778444,-16.18209779469632
12.65,-12.937435595541674,-7.455855063337498,-13.817417059835604
12.7,-10.952903655482055,-7.71252073618774,-13.76273127468312
12.75,-8.622828785371404,-8.088647972346052,-12.106120150738915
12.8,-5.547438829311867,-8.570907664141762,-9.588608780472784
12.85,-2.565737202739619,-8.467304855616433,-6.686918955945416
12.9,-0.06703964861025122,-7.605902407646494,-3.8915907664148794
12.95,2.191225045566467,-6.733659084123391,-2.280822911772957
13.0,4.94504213586637,-5.512917625369,-2.0353856812902467
13.05,7.926436094471008,-3.6608038831248297,-1.7395902362215818
13.1,10.590393660851776,-2.6908694818154375,-1.2359357463382241
13.15,12.735283172760811,-2.4417611704670974,0.3656345133631294
13.2,10.482169859761543,-0.367767997722146,5.227570004387128
13.25,3.2749036339157085,3.6318003149752647,9.525971109925976
13.3,-8.471400959973188,3.6861348047965765,8.021883033636946
13.35,-20.477847987801383,4.304925635672139,-1.571957180863852
13.4,-32.05298916986936,10.806594952005396,-12.571079897253814
13.45,-46.182875798875514,16.04434596196945,-15.560393117419299
13.5,-55.81435123875255,18.027528802933073,-12.38224417635296
13.55,-57.13125177409721,16.166899257419495,-7.611362756412842
13.6,-48.053683599885034,12.040993632502131,-7.064402087962716
13.65,-34.633947799261875,7.699272317127931,-9.952439435224415
13.7,-31.427006412952583,6.642906579478033,-9.865700604785326
13.75,-30.730579375298287,5.571248821855424,-8.237182494247225
13.8,-25.473626334868403,1.7026522751120292,-6.786986216393809
13.85,-19.062452441495008,0.34291497054608056,-4.674140121983632
13.9,-10.845806613848257,1.9404582531573427,-0.768211138156132
13.95,-2.850743081029935,5.2467282230439825,0.24668191662628153
14.0,3.3436293880712546,8.57755954241411,-0.7690375175988045
14.05,5.9913419249072275,11.892321457215857,-0.04439625418245356
14.1,3.7414218272917212,13.956071375444141,3.095939570173491
14.15,-2.520193823128314,13.877775254442266,6.683204791183622
14.2,-10.412151316509204,11.37554947479541,10.592920006820233
14.25,-15.92979394960545,8.6139225380661,13.840357773556484
14.3,-18.005082381213658,6.446021746544725,13.655951424755775
14.35,-16.67144547676023,5.198640948597896,10.47619533333307
14.4,-10.818214209514244,7.106445021604859,5.770147393571703
14.45,-1.9623161293294626,12.115751503863448,1.3975160573599223
14.5,4.202142678782207,14.766037184846677,0.09842173840163909
14.55,5.799280270094895,11.8983405079308,2.2169669843917883
14.6,5.432783765125858,9.303330554893732,4.513221979721356
14.65,0.2963101920678445,10.07290272042599,11.460451402232522
14.7,-7.9322745298398285,12.586492740584255,13.852297891988512
14.75,-14.843719222868451,10.557084233022096,6.7002586737175776
14.8,-18.633580057306567,11.532777327695367,-3.5135558261073228
14.85,-26.09843467614687,14.183781562289573,-10.565994019711418
14.9,-34.69534378454257,15.685558528227164,-15.4553615397278
14.95,-39.8766995627866,15.98404104455356,-20.88585843409501
15.0,-41.355834491109185,14.019245897274812,-21.904978116046514
15.05,-38.16404402979424,9.965170371607668,-19.07425237582306
15.1,-31.73707643917325,6.62276755872309,-17.82086277065067
15.15,-22.03087387645375,4.384910168284922,-11.816287870073644
15.2,-18.34177262550392,6.746318674269212,-4.607637121227871
15.25,-24.00923464947645,4.039465771246515,-2.6792672598364695
15.3,-17.278437364933797,0.14103441480537407,-0.8705446728385153
15.35,-8.585312868349192,0.035951187135451056,1.15105940004392
15.4,-3.7087871246286532,-0.6647064422782882,0.43694762888677235
15.45,0.3382993968655362,-0.9937176417208182,0.0735358681908971
15.5,0.3612280511264671,0.4129886737583075,0.5168791635808226
15.55,-5.652753389043658,1.0716640269926234,1.826159871273909
15.6,-17.22352459195697,3.7437711641270828,-1.8517807731618985
15.65,-24.03920027559866,9.514832791050305,-11.082554124873308
15.7,-28.562123979323747,12.821121783789426,-17.958985920698197
