Time [s],Plantarflexion(+)/dorsiflexion(-),Supination(-)/pronation(+)
0.0,0.7838169937738343,-9.018490900217337
0.008,0.7804963146460954,-9.018398861667118
0.016,0.7760713117671699,-9.020339688846903
0.024,0.7705349915286542,-9.022890067766346
0.032,0.7638468389274625,-9.026109539091243
0.04,0.7561347752626525,-9.03005476458068
0.048,0.7476008091063499,-9.034691775618386
0.056,0.7382862664072615,-9.03990848913355
0.064,0.7287308215351082,-9.045711114054708
0.072,0.719025060820556,-9.051893141675963
0.08,0.7093546987167827,-9.058445241711516
0.088,0.6998392756991367,-9.065393846548076
0.096,0.690668946789773,-9.072758102643162
0.104,0.6819989931939191,-9.080529013634287
0.112,0.6739783823838107,-9.08869585100976
0.12,0.6666830778734548,-9.09725845498063
0.128,0.6602019985859268,-9.10618873918247
0.136,0.6545852571492102,-9.115389150301349
0.144,0.6498214156003378,-9.12479226652672
0.152,0.6459245326959648,-9.134256814995451
0.16,0.642838717181994,-9.143683603035463
0.168,0.6404901425439198,-9.152977308089618
0.176,0.638810031837284,-9.162092194380106
0.184,0.6376980920991647,-9.17096303841877
0.192,0.6370542003964336,-9.179572977044272
0.2,0.6367035248425502,-9.187926904381246
0.208,0.6365138658327312,-9.196009388082164
0.216,0.6363190441737817,-9.203863920900233
0.224,0.6359460447177269,-9.211553728520862
0.232,0.6353063218359005,-9.2191144253166
0.24,0.634304906508974,-9.226616424348602
0.248,0.6329436683162762,-9.234046277471652
0.256,0.6312434680363689,-9.241384457043559
0.264,0.6292600830574655,-9.248595290701164
0.272,0.6270059735818891,-9.255635735251419
0.28,0.6244988151286436,-9.262452657172528
0.288,0.6216931391170969,-9.269039198383084
0.296,0.6185326817368995,-9.275349684722073
0.304,0.6149319224813531,-9.281412294450682
0.312,0.6107635187666964,-9.28725341294817
0.32,0.6059669632934113,-9.292916939442387
0.328,0.6004459612052336,-9.298490553663305
0.336,0.5941571565422479,-9.304043180614423
0.344,0.5871362731879736,-9.3096503364022
0.352,0.5794207686833335,-9.315374133731725
0.36,0.5711134741207554,-9.32119701933654
0.368,0.5623129847614667,-9.327093615542992
0.376,0.5530755844478232,-9.333005932836507
0.384,0.5435453867124868,-9.338859421589817
0.392,0.5337350415918793,-9.344649348734528
0.4,0.523734265194548,-9.350345601345104
0.408,0.5135523122009026,-9.356004795074172
0.416,0.5032682808700862,-9.361693545414914
0.424,0.49294696125125453,-9.367489480887153
0.432,0.4826926173538293,-9.373479225225188
0.44,0.47259208707342604,-9.379707408068462
0.448,0.4627670475234031,-9.386224271716237
0.456,0.45333723421691086,-9.39301103909352
0.464,0.4443214658943081,-9.40009555340249
0.472,0.4357310205095544,-9.407470951387356
0.48,0.42751038102751165,-9.415145058194847
0.488,0.4195530330370397,-9.423136514414628
0.496,0.411782623679249,-9.431382529673204
0.504,0.40403916209003526,-9.439876835524087
0.512,0.39634435588362765,-9.448526258225007
0.52,0.3886691685846376,-9.457287580639779
0.528,0.3810211891593721,-9.466117505192427
0.536,0.37348063381930324,-9.475012847722976
0.544,0.3661419567632788,-9.483924930748607
0.552,0.35910209079763145,-9.492818195023549
0.56,0.35247617947585413,-9.501633871770776
0.568,0.3463227034933339,-9.510312451500011
0.576,0.3406547512598253,-9.518872748164833
0.584,0.33538504512352985,-9.527361332652168
0.592,0.3304255301669846,-9.535843597031922
0.6,0.32570764250196194,-9.544396706450085
0.608,0.32118153560156104,-9.553047276143511
0.616,0.3168282406587263,-9.561769885193721
0.624,0.31265122475660234,-9.570487942581869
0.632,0.30880865440739513,-9.57908211862312
0.64,0.30540380076809076,-9.587445982771559
0.648,0.30263594476519573,-9.595458150968504
0.656,0.30066256417761544,-9.603085675525227
0.664,0.29961384258494445,-9.610292262350532
0.672,0.29951163246695206,-9.61709870757198
0.68,0.30031957711145246,-9.623538638403762
0.688,0.3018780093179346,-9.629655755732388
0.696,0.3039930452746008,-9.63549690233959
0.704,0.3064305095508543,-9.641112451065947
0.712,0.3089961685249759,-9.646580681776896
0.72,0.3115169821865361,-9.651945353796874
0.728,0.31390624036242626,-9.657264364415893
0.736,0.31611400376581267,-9.662561723597836
0.744,0.31807606796715204,-9.667863063731406
0.752,0.3197473855645929,-9.673142789001128
0.76,0.3210754907991184,-9.678412675820763
0.768,0.3220116512949872,-9.683662031995295
0.776,0.3224632196210823,-9.688916100013344
0.784,0.32242039211181306,-9.694182361667426
0.792,0.3218246260787799,-9.699464570238803
0.8,0.3206930035094347,-9.70474736087281
0.808,0.31905522166308925,-9.710036524365169
0.816,0.31697649356836083,-9.71529803748362
0.824,0.3144954090412523,-9.720534203170663
0.832,0.3116600489462512,-9.725753250257494
0.84,0.30854347908079,-9.730966667028152
0.848,0.3051611166394372,-9.736244171276166
0.856,0.30156803368450885,-9.741646484060979
0.864,0.2978396812345078,-9.74728899639168
0.872,0.29403572426385577,-9.753204936603462
0.88,0.2902308858398904,-9.759470287849462
0.888,0.286491324382702,-9.766106128725662
0.896,0.2828788366311275,-9.773078680638985
0.904,0.2793782806223794,-9.780383528086071
0.912,0.27596754105002175,-9.78796991185024
0.92,0.2725298055790436,-9.795907608059087
0.928,0.26888030602419066,-9.804248135476794
0.936,0.26487476368958535,-9.813148700079394
0.944,0.2602951872123853,-9.822770379449615
0.952,0.25505224554482986,-9.833209803818352
0.96,0.24916198586116947,-9.844397302480978
0.968,0.24275614003145457,-9.85619038697906
0.976,0.23609227519565498,-9.868204140925616
0.984,0.22943226927288338,-9.880026941297151
0.992,0.2230321138609589,-9.891201971468837
1.0,0.2170267829082686,-9.901356739875686
1.008,0.21144168272769148,-9.910232374474838
1.016,0.20615857433882792,-9.917761061985185
1.024,0.20087993291817202,-9.924038256334487
1.032,0.19513159597765825,-9.929235629928506
1.04,0.18813805157182198,-9.93354330087389
1.048,0.17888470942007884,-9.9370832008042
1.056,0.16599083129312048,-9.939815153115822
1.064,0.147944629795275,-9.94145309036056
1.072,0.12315645989286468,-9.941503760456657
1.08,0.09031277559947994,-9.939250986497099
1.088,0.04857589178730078,-9.933809874910985
1.096,-0.002289620359645103,-9.924333517683921
1.104,-0.061577131553815445,-9.910086353639905
1.112,-0.1278513870460651,-9.890639647325834
1.12,-0.19896224077700636,-9.866181818298811
1.128,-0.27230510938199143,-9.837562151686697
1.136,-0.3450659928942789,-9.806293561570605
1.144,-0.4146885523056335,-9.774314285449893
1.152,-0.47906617151433856,-9.74350286265524
1.16,-0.5368590723685489,-9.715326393659794
1.168,-0.5876095291988923,-9.690417551991207
1.176,-0.6319066250006173,-9.668520485816673
1.184,-0.67137782018658,-9.648638387720242
1.192,-0.7084728090720949,-9.629211731284334
1.2,-0.7462355005598887,-9.608517725874853
1.208,-0.7877603967020907,-9.58490776885357
1.216,-0.8357571024306282,-9.556971293433019
1.224,-0.8921066973854979,-9.523652312437234
1.232,-1.0078038254231432,-9.451093545095155
1.24,-1.0819631054231562,-9.403595139093124
1.248,-1.162656549079995,-9.351660227004515
1.256,-1.2489358381178866,-9.296003452682616
1.264,-1.3041563830189555,-9.272160309745756
1.272,-1.4056780982872166,-9.20920470812527
1.28,-1.5109517865499564,-9.144200161643106
1.288,-1.619423626495401,-9.077841055156833
1.296,-1.730820321453863,-9.010486598297794
1.304,-1.8449772450851665,-8.94220111317902
1.312,-1.9617223641585109,-8.872943231824527
1.32,-2.080610040964101,-8.80263666879902
1.328,-2.2007792148974077,-8.731388409289156
1.336,-2.3207380058720135,-8.65946595368911
1.344,-2.438482784456579,-8.587273119769876
1.352,-2.5516777744057544,-8.515114907414524
1.36,-2.657947922075027,-8.442772713324603
1.368,-2.755143751382798,-8.369497399325695
1.376,-2.841552482241988,-8.294046730827104
1.384,-2.9158844166416746,-8.215084339947976
1.392,-2.977054839765674,-8.13157628082562
1.4,-3.024153344033439,-8.043168416764898
1.408,-3.0560999009923777,-7.950103607270576
1.416,-2.976148833234966,-7.82364084178477
1.424,-2.954616423246435,-7.721284257533244
1.432,-2.9095569328132074,-7.618520040023108
1.44,-2.8378047156549893,-7.516613329358942
1.448,-2.7357315851277,-7.416468705246593
1.456,-2.599532802236939,-7.3185964761956
1.464,-2.4254257595721587,-7.223220378068258
1.472,-2.209963713956632,-7.1304142413885545
1.48,-1.9501625571295262,-7.040335235417219
1.488,-1.6436936177019887,-6.953394614910366
1.496,-1.288866852711683,-6.870301089037387
1.504,-0.884816851129841,-6.791990382698086
1.512,-0.43151501276102194,-6.719399566490455
1.52,0.07033254751807401,-6.653114200889872
1.528,0.6193542828313633,-6.593015895195149
1.536,1.2135762950274374,-6.53821017261232
1.544,1.8507318637335157,-6.486985934961454
1.552,2.528232431366654,-6.437134763697163
1.56,3.2434173902227497,-6.386294191219713
1.568,3.9933635172059363,-6.332384651573497
1.576,4.775099519362949,-6.273917552539636
1.584,5.585257420010223,-6.2102684716968115
1.592,6.420216655132095,-6.141795862408568
1.6,7.27595576925431,-6.069789875022279
1.608,8.148020419643982,-5.996302966177855
1.616,9.031532990063859,-5.923762024520935
1.624,9.921223292719223,-5.854586960313293
1.632,10.811536094903285,-5.79079940833371
1.64,11.69699381670777,-5.73372652047878
1.648,12.572442431210865,-5.683721482139962
1.656,13.433529369989722,-5.64019973932834
1.664,14.276807822825848,-5.601703954825628
1.672,15.09982436869166,-5.566207789128335
1.68,15.900946829807493,-5.531547636113807
1.688,16.679070068002865,-5.495816998613563
1.696,17.433325158167296,-5.45765005712276
1.704,18.16284513716221,-5.416354704769718
1.712,18.866670242300017,-5.371772734052899
1.72,19.543790914845506,-5.3240777053667845
1.728,20.193292304034642,-5.273588518290323
1.736,20.814700470899396,-5.22044352750939
1.744,21.408075622319164,-5.16472605277194
1.752,21.97436222068246,-5.1063943777365095
1.76,22.515404997327362,-5.045369645483477
1.768,23.033858214343216,-4.981680965416887
1.776,23.533123653811046,-4.915389504582785
1.784,24.017120437086785,-4.846615565258207
1.792,24.489873670389198,-4.775372814081455
1.8,24.95534533333846,-4.701588260650435
1.808,25.416968598089273,-4.625026844188618
1.816,25.87756467934041,-4.545346624831779
1.824,26.339252185612224,-4.462178124063406
1.832,26.803590178287454,-4.375123884555862
1.84,27.2716573012222,-4.283775813291485
1.848,27.744211747544288,-4.187720975585503
1.856,28.221869306284194,-4.086483504737494
1.864,28.704908782850776,-3.979608686786076
1.872,29.193420691832564,-3.866711379635043
1.88,29.68717445442981,-3.747614206664281
1.888,30.185701401521044,-3.622389619762807
1.896,30.688255189492455,-3.4914280689520925
1.904,31.193949370804933,-3.355395071899675
1.912,31.701875628049812,-3.2151310256892405
1.92,32.211048601155895,-3.071585717802446
1.928,32.72047569052479,-2.9257771607669545
1.936,33.229071856351595,-2.7787853077662126
1.944,33.73579405686483,-2.6316751283537396
1.952,34.23956609413817,-2.4854952176316125
1.96,34.739538417330316,-2.3412368230243152
1.968,35.23496846351796,-2.199712810309689
1.976,35.72525909996652,-2.0615280208752744
1.984,36.20984028993996,-1.9270286084263217
1.992,36.68812522945126,-1.7962810504277893
2.0,37.159590651715156,-1.6691504625980906
2.008,37.623715680826926,-1.545436033817686
2.016,38.08010201858841,-1.425024042367375
2.024,38.52837672354298,-1.3079126880672383
2.032,38.96812597736853,-1.1942442079776963
2.04,39.39885287339642,-1.0842675835871616
2.048,39.81993350816387,-0.9782513005246064
2.056,40.23055848868576,-0.8765869325142543
2.064,40.62969382065985,-0.7796619903899609
2.072,41.01609457050831,-0.6880393100367906
2.08,41.38839622322143,-0.6022829437144263
2.088,41.74524093727813,-0.523093240918997
2.096,42.0855667781607,-0.4511883190695133
2.104,42.4086874767107,-0.3873383794077308
2.112,42.71436136553533,-0.3323751195013997
2.12,43.00261248972364,-0.2870160195429435
2.128,43.27343819056142,-0.25180702684443146
2.136,43.52655263468863,-0.22684857772880673
2.144,43.76146871777283,-0.2117256195707265
2.152,43.977722476492595,-0.20537570575669786
2.16,44.17519798011059,-0.20604967204510266
2.168,44.35437845818918,-0.21152212636813827
2.176,44.51623667252411,-0.2194301147452743
2.184,44.66212978888698,-0.22767293220621646
2.192,44.79360696088542,-0.2348592692083484
2.2,44.912241814324474,-0.24054495655578076
2.208,45.01962769399996,-0.24510879427094429
2.216,45.11718269029376,-0.24967361234256596
2.224,45.20646330148068,-0.2557218114136647
2.232,45.288921438535255,-0.2648217732110019
2.24,45.36600175969741,-0.27833329773214244
2.248,45.43883138534795,-0.29720501193704146
2.256,45.50813984835476,-0.32179011854776723
2.264,45.57404622097074,-0.3516837825372526
2.272,45.63609751719293,-0.38586486600582787
2.28,45.693478583660635,-0.42277451796051047
2.288,45.74526470375367,-0.4607741532889801
2.296,45.79088322292866,-0.4986104894614095
2.304,45.83046276455397,-0.5357698991057968
2.312,45.86504561047498,-0.5727058626248643
2.32,45.89649688448172,-0.6107009509951555
2.328,45.92730174241554,-0.6513875554728101
2.336,45.95979676661555,-0.6963384775199991
2.344,45.995740101573375,-0.7465878388726619
2.352,46.03581529194314,-0.8024005273726411
2.36,46.079367649315266,-0.8633870153086306
2.368,46.12463775283217,-0.9287218712173101
2.376,46.16907498075891,-0.9975961931416053
2.384,46.210061438775206,-1.069641334556043
2.392,46.245278770903916,-1.1451895329710684
2.4,46.27317524363399,-1.2255039992593952
2.408,46.292921641094914,-1.3125486726168123
2.416,46.30406739239241,-1.4087133767800775
2.424,46.305900838264826,-1.5163440881944659
2.432,46.29688517403191,-1.6372419306217427
2.44,46.274062501854246,-1.7723704235238602
2.448,46.23295680734915,-1.9218180247425376
2.456,46.16757595854496,-2.0848346994143396
2.464,46.070824827526444,-2.2598494995081313
2.472,45.93448528801213,-2.444198432468622
2.48,45.7497954171054,-2.6336745890869033
2.488,45.50743606280942,-2.8221552682615685
2.496,45.19814539838569,-3.0017761827686344
2.504,44.81368884675873,-3.1635541500699857
2.512,44.34809016672063,-3.298870761975227
2.52,43.799360499173616,-3.4010836893409135
2.528,43.170766482120655,-3.4664503048424535
2.536,42.4714507580517,-3.4941655065815644
2.544,41.716346547768936,-3.484874486116243
2.552,40.92550298337051,-3.438907891590304
2.56,40.12262801791306,-3.35500428933632
2.568,39.333588623122864,-3.2305772078850765
2.576,38.583620781730446,-3.063747101729881
2.584,37.894264396697906,-2.856107133283861
2.592,37.27972628971075,-2.6145128311543586
2.6,36.744225893440614,-2.350719175664963
2.608,36.28119165622937,-2.0783511565788317
2.616,35.87504133843633,-1.8087573054714854
2.624,35.504468573366275,-1.5474992374691148
2.632,35.14576524883125,-1.292810934444642
2.64,34.77533736462847,-1.0366488756901224
2.648,34.369649163264185,-0.7675355024869189
2.656,33.904440271117664,-0.47326600913432704
2.664,33.355086706532965,-0.14295285592415713
2.672,32.69832649060008,0.23168158363180674
2.68,31.916007662844272,0.6557846863951496
2.688,30.998009705981218,1.130498802719488
2.696,29.944166081616537,1.6526722902861575
2.704,28.764115040406743,2.2144109945142807
2.712,27.475495886666625,2.8031315649079738
2.72,26.101512620991926,3.401934045062289
2.728,24.668765265587883,3.9901537689963704
2.736,23.206087812993708,4.543834109961499
2.744,21.744032813579093,5.036493809665537
2.752,20.315631590554162,5.4395118427117035
2.76,18.955758373153675,5.722250978779991
2.768,17.698319440460917,5.852720649803671
2.776,16.5708370349208,5.799147554988711
2.784,15.58511267908212,5.5331920238088905
2.792,14.729067754402973,5.0369252758557
2.8,13.962616063264884,4.312259290429904
2.808,13.223502288249614,3.390005724875924
2.816,12.44236559710217,2.3317510185447072
2.824,11.562123711205386,1.2205849520040366
2.832,10.553419669097705,0.14254322763947422
2.84,9.420980780656206,-0.8331183111098137
2.848,8.199220945923166,-1.6667564434442745
2.856,6.940948778462703,-2.350245216423056
2.864,5.704292571154631,-2.9002266048191823
2.872,4.5417318623109,-3.347617515949223
2.88,3.4934130627027042,-3.727723745076282
2.888,2.58488106773961,-4.072994376594341
2.896,1.8278866863088958,-4.409056797312427
2.904,1.2227375728971792,-4.753439438768977
2.912,0.760596361325223,-5.115776580772008
2.92,0.42549191230499445,-5.4986498631660075
2.928,0.19610261703957568,-5.898729927682771
2.936,0.04755980801740638,-6.308483523704446
2.944,-0.04633038956061584,-6.718229836552732
2.952,-0.11043680601385003,-7.118325966964445
2.96,-0.1658324623512632,-7.500775462256426
2.968,-0.22775287398215552,-7.8599370494660254
2.976,-0.30439397038167826,-8.192472050118484
2.984,-0.3965535107856444,-8.496638807942304
2.992,-0.4978837764221433,-8.771674306309169
3.0,-0.5958077901458712,-9.017429391663958
3.008,-0.6726323277647795,-9.234110403393917
3.016,-0.7070333332938261,-9.42193810989478
3.024,-0.6756601198620137,-9.580394626112668
3.032,-0.5551548605211856,-9.707394486510832
3.04,-0.324546861264132,-9.798973424802853
3.048,0.03283303115749871,-9.849724748834715
3.056,0.5278346397403368,-9.854458765534185
3.064,1.1655435067434976,-9.810235479446671
3.072,1.9462835092332598,-9.718294194928447
3.08,2.8677263700266864,-9.58497536289978
3.088,3.926942675789397,-9.421138634898139
3.096,5.121706350577011,-9.240358202158912
3.104,6.450338850400568,-9.056526304613742
3.112,7.910337261083339,-8.881983988641084
3.12,9.495993319933781,-8.726134467634587
3.128,11.195390284605875,-8.594682935661936
3.136,12.987690850269317,-8.487892955277822
3.144,14.841298993302155,-8.398592280971126
3.152,16.71392509685688,-8.311260838371428
3.16,18.554575366414223,-8.20517196154436
3.168,20.306476846960493,-8.062690253260836
3.176,21.910824720404445,-7.880786988229379
3.184,23.310050233001906,-7.680843633629243
3.192,24.45075815347147,-7.510995580523002
3.2,25.287007872374325,-7.4384394317381295
3.208,25.785336359046063,-7.533975432468656
3.216,25.932204946688344,-7.85497823713124
3.224,25.742092537668242,-8.432882333797215
3.232,25.26167496294662,-9.26821899510454
3.24,24.565737167030004,-10.332042107205432
3.248,23.74402118938354,-11.571579873290535
3.256,22.883486868555252,-12.917748388719046
3.264,22.053261934785596,-14.294437543211012
3.272,21.29680523852074,-15.62840462332158
3.28,20.633069454371974,-16.858203270650765
3.288,20.06373636479785,-17.93983876220631
3.296,19.582998697811494,-18.847672040648742
3.304,19.186057338472807,-19.571160182570015
3.312,18.87419287888204,-20.109722289222834
3.32,18.655620564254278,-20.46765736518474
3.328,18.5425550614182,-20.650733915455547
3.336,18.546779396011704,-20.665081008813534
3.344,18.675301816840204,-20.517804446865156
3.352,18.927788175743217,-20.21898228783245
3.36,19.29602824750946,-19.783865466285825
3.368,19.76467490408772,-19.234835006062536
3.376,20.31271354849987,-18.60218693899266
3.384,20.91448286372029,-17.92298031733622
3.392,21.540947452345435,-17.237447514045225
3.4,22.160846513883016,-16.583407997132078
3.408,22.742342812577213,-15.989788271047617
3.416,23.25563671147509,-15.471243528593064
3.424,23.675665017855295,-15.026516249090896
3.432,23.98462405397552,-14.640394145931497
3.44,24.17328835432184,-14.289022456238408
3.448,24.24137213103465,-13.946762039335697
3.456,24.196864142911345,-13.592485950556188
3.464,24.054650059755186,-13.214854486543288
3.472,23.83436396659791,-12.816035213443527
3.48,23.557750014838412,-12.41432557547089
3.488,23.24484695350982,-12.044836051514851
3.496,22.910504581920602,-11.757122050760783
3.504,22.561713578553768,-11.607593865056206
3.512,22.197646193021086,-11.64666389702561
3.52,21.811533764403137,-11.903359297490882
3.528,21.393969961544403,-12.373312615135257
3.536,20.93533156460331,-13.015030430525957
3.544,20.42772962000999,-13.756602465593057
3.552,19.866767913702194,-14.512108838864997
3.56,19.254416842666046,-15.201006498116513
3.568,18.60167626752271,-15.764099945408882
3.576,17.928807676391173,-16.171902150847234
3.584,17.26177382597126,-16.424551539946503
3.592,16.62568699271888,-16.545076158303083
3.6,16.037504912782772,-16.568509056171152
3.608,15.500657195593597,-16.530257482037882
3.616,15.003870252003919,-16.45685230367652
3.624,14.523911035687249,-16.361504814368082
