Time [s],Flexion(-)/extension(+),Supination(+)/pronation(-)
0.0,1.5510834329032726,0.8197622169702011
0.008,1.553671953626544,0.8209461413619793
0.016,1.5568013555654283,0.8223092433573456
0.024,1.5604136759516547,0.8239379679996885
0.032,1.5643643209593006,0.825836076319434
0.04,1.5684761750587861,0.8280368283417533
0.048,1.5726293206009527,0.8304286986405998
0.056,1.5768396674222342,0.8330546888929574
0.064,1.580991849331355,0.8356860425063909
0.072,1.5850182276461329,0.838437847154365
0.08,1.5890524616120854,0.8412781699021658
0.088,1.5930119366287632,0.8443123801842027
0.096,1.5968293764654655,0.8476263873844692
0.104,1.6003963585777397,0.8513441821798476
0.112,1.6036035058809777,0.8555774656328798
0.12,1.6063148274296404,0.8603904584350641
0.128,1.608490152835301,0.8657427866081471
0.136,1.6100886876679903,0.8715202030497653
0.144,1.6111715773283994,0.8776289437305707
0.152,1.6118619778921146,0.8838376926192049
0.16,1.612301241207886,0.8900098978958185
0.168,1.6127044654057865,0.8960856795722244
0.176,1.6132569255555227,0.9021027257329038
0.184,1.6141147734030508,0.9081066732430807
0.192,1.6153922160505059,0.914204538219761
0.2,1.617124018269895,0.9204905062800902
0.208,1.619279402472343,0.9269725159065738
0.216,1.6217437034230373,0.9336436886075491
0.224,1.6243261938915328,0.940425798251801
0.232,1.6268301728436703,0.9472347929456766
0.24,1.6289886933221265,0.9539503877657991
0.248,1.6306265372092557,0.9603790107012345
0.256,1.631556030006616,0.9662999911223885
0.264,1.6316764302598594,0.9714494260159038
0.272,1.6310002072325487,0.975579803616301
0.28,1.6295824504929513,0.9783726825567842
0.288,1.627616602599336,0.9796381834232673
0.296,1.6253406559730128,0.9791750603735546
0.304,1.6229931874012367,0.9769241520267877
0.312,1.6208277400618543,0.972834651853316
0.32,1.6189923670157274,0.9670074285257961
0.328,1.6175845390956003,0.9595474788238003
0.336,1.6166083351675025,0.9506608030626468
0.344,1.6159667170067193,0.9406594792002725
0.352,1.6155480646392733,0.929877781812659
0.36,1.6151440163347714,0.9186487818622385
0.368,1.6145814042031839,0.9073836681261085
0.376,1.6136795731168696,0.8963305654608831
0.384,1.6123684047425197,0.8857008232236968
0.392,1.6106082930806984,0.875575484620841
0.4,1.6084857045983512,0.8658321635476667
0.408,1.606073708404269,0.8563774398858556
0.416,1.6034982466277403,0.8470270226879347
0.424,1.6008454138468586,0.8376053791654686
0.432,1.5982095662680367,0.8280029923613338
0.44,1.595657722818629,0.8182845701111728
0.448,1.5932788737294628,0.8085907888139695
0.456,1.5911971442797506,0.7991730967090691
0.464,1.5895170094042568,0.7903418493365202
0.472,1.5883991547324847,0.7824185367996344
0.48,1.5879690541479867,0.7756902498266348
0.488,1.5883148201732387,0.7703538847505763
0.496,1.5894730395647942,0.7664176985034951
0.504,1.5914176320793276,0.7638115242446657
0.512,1.5940050283822793,0.7623540014180296
0.52,1.5970561224171766,0.7617362215547523
0.528,1.6002951888839227,0.7616262442106041
0.536,1.6034619855915289,0.7618347642565726
0.544,1.606280123627438,0.7622027097585327
0.552,1.6086058905942349,0.762730143122477
0.56,1.6103772156431464,0.763509053736296
0.568,1.6116565258810578,0.7646945590468973
0.576,1.6126297156993075,0.7663841977481926
0.584,1.6135114972087803,0.7687309652608817
0.592,1.6145630987757913,0.7717012308688002
0.6,1.6160071608999662,0.7752290046634726
0.608,1.6180137095302072,0.7790359620803632
0.616,1.6207270101094369,0.7827537852193547
0.624,1.6242041889385062,0.7859475718716533
0.632,1.6284460485868135,0.7882609097459917
0.64,1.6334018985661478,0.7894303497369074
0.648,1.6389569215756423,0.7895787297117868
0.656,1.6450557543024453,0.78911910336223
0.664,1.6516321002603052,0.7887722424869232
0.672,1.6586706805730667,0.7894210857339674
0.68,1.6662197043322369,0.7918234151320371
0.688,1.6743232776416732,0.7964858592519584
0.696,1.6829904048363342,0.8034151782424849
0.704,1.69210776796366,0.8122374128489125
0.712,1.701502539619232,0.8221650859083168
0.72,1.7108134392842302,0.8322846733645676
0.728,1.7196642461408425,0.8417022108018808
0.736,1.7276321736702087,0.8497819691760331
0.744,1.7344219056072723,0.8561779170243741
0.752,1.7398905257080435,0.8608786993984519
0.76,1.744069608731026,0.8640893798373055
0.768,1.7472005387409306,0.8661340747915828
0.776,1.7496264003007183,0.867302438888402
0.784,1.751741389488537,0.867780872659718
0.792,1.7538723867500956,0.8675760712297782
0.8,1.7562879405690757,0.8665350754920673
0.808,1.759099028334391,0.8645156456073905
0.816,1.7623264324511425,0.8613082303441051
0.824,1.7658589865606134,0.8569004310388434
0.832,1.7695656506990456,0.851410942195662
0.84,1.7732804077291064,0.8451526836963749
0.848,1.7768461254463779,0.838462366309879
0.856,1.7801172058216124,0.8317598417625873
0.864,1.7829462457536485,0.8252781786292772
0.872,1.785199041945756,0.8191666308229847
0.88,1.7867728326861354,0.8133614975342308
0.888,1.7876385120907514,0.8077518461762869
0.896,1.7878205354712218,0.8022130736859281
0.904,1.7874824896775157,0.7966569234092438
0.912,1.7868639106847497,0.7912109269680532
0.92,1.786255880301658,0.7860557050050307
0.928,1.7858957839039087,0.7815628512971106
0.936,1.785984840985305,0.7780743057283617
0.944,1.786565691605289,0.7757927054355287
0.952,1.7875082828574549,0.7746448357707612
0.96,1.7883906814861772,0.7740127813745258
0.968,1.788403990206895,0.7725975949244485
0.976,1.7862102423376076,0.7681190291737132
0.984,1.779787241644971,0.7569311166157446
0.992,1.76634132202754,0.733740505339234
1.0,1.7423522727715453,0.6912278123650099
1.008,1.703809329946936,0.6201450553410064
1.016,1.6466705672762536,0.509870376350727
1.024,1.5675406464510164,0.34931292929023466
1.032,1.4642816402356265,0.12884636659675647
1.04,1.336683661113324,-0.15797764318330937
1.048,1.1866246692560622,-0.5124303149023853
1.056,1.0180273652160288,-0.9299522531106159
1.064,0.8363747526855914,-1.4005568459149762
1.072,0.6482249766811469,-1.910858924708594
1.08,0.4605254462772731,-2.4468794409901546
1.088,0.27984968084979794,-2.9967422358524556
1.096,0.11173295069172322,-3.552297593908105
1.104,-0.03968087810229061,-4.108961990145432
1.112,-0.1716174010435429,-4.664038432892337
1.12,-0.28247705363649417,-5.213983418506859
1.128,-0.37119281898918716,-5.752010691079495
1.136,-0.4366362427084521,-6.266712136341286
1.144,-0.47735744684253834,-6.7424651050274065
1.152,-0.49144305543690114,-7.161380146225371
1.16,-0.47681979820153386,-7.506423630474931
1.168,-0.4317138295169333,-7.764662983855129
1.176,-0.3550593651274658,-7.92992760580307
1.184,-0.24681148232171926,-8.004178391478666
1.192,-0.10827894121208782,-7.996846255946334
1.2,0.057865461368440146,-7.92314512221705
1.208,0.24748740249221465,-7.800851563720796
1.216,0.45545442516213247,-7.647354127689462
1.224,0.6760764667445436,-7.477146624589826
1.232,0.903906314499027,-7.300729025082947
1.24,1.1342925366062506,-7.124400253366618
1.248,1.3638278526280958,-6.950929153243494
1.256,1.590409159280222,-6.780488388479329
1.264,1.8129226891934955,-6.6116038851802585
1.272,2.030928932532579,-6.441957483619132
1.28,2.244188474062774,-6.268788982219595
1.288,2.452431744670654,-6.089457224275177
1.296,2.655152298071584,-5.902042898153046
1.304,2.8516972032966534,-5.70583340637278
1.312,3.0413780828029586,-5.502046668491945
1.32,3.223591065156367,-5.293736550865645
1.328,3.3980266851521166,-5.085448655970567
1.336,3.5646638662810655,-4.882489388793554
1.344,3.7238852382263485,-4.6898533651727785
1.352,3.876233338133596,-4.511844056150225
1.36,4.022351298768063,-4.351678312599134
1.368,4.162832289707128,-4.211741732898029
1.376,4.298059855310227,-4.094013650729643
1.384,4.42815148591096,-4.000261416417865
1.392,4.553016736272481,-3.932038578993838
1.4,4.672417886085681,-3.8903134006359483
1.408,4.786162739892492,-3.874939869871696
1.416,4.894221682178191,-3.884137044129403
1.424,4.996745664643057,-3.9141294814107743
1.432,5.094149178270886,-3.9593343664754936
1.44,5.186926722333289,-4.012704786864451
1.448,5.2755398496385055,-4.066556895478419
1.456,5.360431032218768,-4.113591984770034
1.464,5.441796466332072,-4.148015767361846
1.472,5.519727432928638,-4.166792918225653
1.48,5.594004718279425,-4.170588573190845
1.488,5.664106558269648,-4.164130642836802
1.496,5.729230374841466,-4.155618345939355
1.504,5.788120200741618,-4.155618695819221
1.512,5.839365354191282,-4.175113091877144
1.52,5.881536793498665,-4.224006594947258
1.528,5.913498889155194,-4.309603454753063
1.536,5.93464169843662,-4.435775916137761
1.544,5.945154941942272,-4.602781530669144
1.552,5.9458466679872215,-4.807315737078482
1.56,5.938173536754338,-5.04315985471571
1.568,5.9239003785291855,-5.301919387838198
1.576,5.904826842847405,-5.57411396818946
1.584,5.88259069131896,-5.850038326501692
1.592,5.85837084657903,-6.12065632422711
1.6,5.833026973346522,-6.378028026568846
1.608,5.807163116066993,-6.615603020497287
1.616,5.781380953216052,-6.828297894788005
1.624,5.756471972762019,-7.012631376302645
1.632,5.733555140974778,-7.166665085702295
1.64,5.713899409012527,-7.290139062398381
1.648,5.698920400801865,-7.384382569452651
1.656,5.689866792170291,-7.452041664847189
1.664,5.687727537449659,-7.497005928136718
1.672,5.693047674185094,-7.524009128473671
1.68,5.705858587866174,-7.538433079479899
1.688,5.725777244998146,-7.545916883573969
1.696,5.752082691306831,-7.552154116293702
1.704,5.783806593701912,-7.562214318783795
1.712,5.8199870481149185,-7.580476791525724
1.72,5.859767677201153,-7.610322555895828
1.728,5.902603864908564,-7.654142992982643
1.736,5.94821734311086,-7.713303837824018
1.744,5.996575890667805,-7.78820794774098
1.752,6.047624072175852,-7.878251569882863
1.76,6.101208264354121,-7.981656314964163
1.768,6.1570045355165295,-8.09545221716131
1.776,6.214742862928223,-8.215606501005396
1.784,6.274323528514979,-8.337577522072227
1.792,6.335882391672455,-8.457274199234018
1.8,6.399625839424475,-8.571845766246806
1.808,6.465478799496861,-8.680244383878582
1.816,6.533083908371654,-8.783209882861128
1.824,6.601816670864953,-8.882881817099491
1.832,6.67114729631342,-8.982171029858332
1.84,6.7409693087672915,-9.08396471857333
1.848,6.811882788830146,-9.190556819855905
1.856,6.88518775542665,-9.303198598738637
1.864,6.962525844298074,-9.422163500585478
1.872,7.045371701104899,-9.546869572436272
1.88,7.134461458530836,-9.676161694257994
1.888,7.229689233825498,-9.808545050574935
1.896,7.330147454980763,-9.94218669430801
1.904,7.434498788991232,-10.07511395020779
1.912,7.541159648886262,-10.205333477327175
1.92,7.64825196487916,-10.330973030772803
1.928,7.7536070324981115,-10.45061711075386
1.936,7.854981305335633,-10.563700789397132
1.944,7.9503298009719465,-10.670818749401093
1.952,8.03834849082441,-10.773845162038864
1.96,8.118557815386199,-10.875783567083687
1.968,8.191275133878431,-10.980038959578009
1.976,8.25714324841166,-11.089762728834977
1.984,8.316763803460491,-11.206965762723135
1.992,8.370325077551191,-11.33204819110257
2.0,8.417361428618843,-11.463407884202793
2.008,8.456910411814995,-11.597828953833154
2.016,8.48799049958379,-11.731183935855384
2.024,8.509842902680873,-11.859153635700936
2.032,8.522385219489909,-11.97822172531201
2.04,8.52610206205107,-12.085959110670096
2.048,8.522154623082919,-12.181349894758059
2.056,8.511923362592773,-12.264728796493069
2.064,8.496938481945023,-12.337674834761227
2.072,8.47863280513295,-12.402905306267007
2.08,8.458244818563028,-12.463757216137246
2.088,8.436441719993189,-12.52366978261801
2.096,8.413265422737105,-12.585232828780603
2.104,8.387629784164561,-12.649102225478707
2.112,8.357353006985791,-12.713596865015028
2.12,8.31940410250126,-12.774744689461524
2.128,8.270641170154228,-12.827451176921853
2.136,8.208396725464508,-12.866842553022423
2.144,8.131134955136288,-12.889670110084644
2.152,8.038178298877488,-12.894800839829308
2.16,7.9296383119817975,-12.883125436050088
2.168,7.805643928766586,-12.856828385197465
2.176,7.666154082662957,-12.818662075923097
2.184,7.510492784107619,-12.77148198402855
2.192,7.337456962845816,-12.718188002887878
2.2,7.145529201474959,-12.661641470859417
2.208,6.933104885433669,-12.604459932684204
2.216,6.698876213158623,-12.548754396588722
2.224,6.442078160780418,-12.495799359623826
2.232,6.162587824579229,-12.445899241884135
2.24,5.861135555456524,-12.398485108311515
2.248,5.539272005700556,-12.352445646294747
2.256,5.1992806652701535,-12.30668305883364
2.264,4.843718890861892,-12.260626871516907
2.272,4.475315476392367,-12.214584675001628
2.28,4.096290160723517,-12.16969092296032
2.288,3.7083366120531,-12.127583578431073
2.296,3.3123558217324462,-12.089973882940797
2.304,2.9087433157027167,-12.058206746552363
2.312,2.497746241203125,-12.033161548967277
2.32,2.079663569171978,-12.015251550416979
2.328,1.6552125718618749,-12.004690584007225
2.336,1.2253305675033082,-12.001712114799915
2.344,0.7906385024424849,-12.00630664564599
2.352,0.35075845195448024,-12.018015085584153
2.36,-0.09600056013992658,-12.035879327380226
2.368,-0.5525241961289067,-12.058471350520042
2.376,-1.0221636071915399,-12.084638732559432
2.384,-1.507322959114263,-12.114298668652559
2.392,-2.0085220514046633,-12.148964608274767
2.4,-2.52390980932433,-12.191641224681607
2.408,-3.049565718569118,-12.246174129531305
2.416,-3.580589390141388,-12.316327349798737
2.424,-4.112013941615754,-12.40509813850407
2.432,-4.6396670312009505,-12.514438750345773
2.44,-5.160673380495078,-12.645373068821618
2.448,-5.6734430547402175,-12.7982939925133
2.456,-6.177641820270012,-12.973406384411705
2.464,-6.673969234797249,-13.171137719257892
2.472,-7.1641055660359365,-13.392708724931046
2.48,-7.650701904553001,-13.640412558304595
2.488,-8.137423644902091,-13.917768535770163
2.496,-8.628716532782743,-14.228778481389014
2.504,-9.129066887749964,-14.576267700587183
2.512,-9.641747375570684,-14.95932735757509
2.52,-10.166969914053707,-15.370723399716372
2.528,-10.699982896914179,-15.79552706318269
2.536,-11.229467742491773,-16.211934300913764
2.544,-11.737233868631035,-16.594571048277917
2.552,-12.198950105015177,-16.919404703010628
2.56,-12.586560807298723,-17.168129889808434
2.568,-12.871476729658692,-17.33084455092468
2.576,-13.028146275983232,-17.40613187972816
2.584,-13.037707225895694,-17.39964988634021
2.592,-12.89156635746406,-17.322949321682348
2.6,-12.594511286489848,-17.193145231941518
2.608,-12.165500314102635,-17.032688659134692
2.616,-11.635538317177897,-16.867499182277946
2.624,-11.041519497579802,-16.72211694757719
2.632,-10.418225021281001,-16.613267592690928
2.64,-9.79117907080065,-16.545011057302666
2.648,-9.173027653742308,-16.508180503398464
2.656,-8.56470146242507,-16.48508195904589
2.664,-7.96019963174492,-16.45747146663112
2.672,-7.352770178457988,-16.413763310025768
2.68,-6.739195469118423,-16.352906983626998
2.688,-6.120559923193869,-16.283332039922925
2.696,-5.499416131376894,-16.217968435993946
2.704,-4.875239100973707,-16.16742689690208
2.712,-4.240737057565149,-16.134099120887022
2.72,-3.5800023097562925,-16.108685999667383
2.728,-2.869227525553195,-16.07034065657685
2.736,-2.0785489078109816,-15.989634344424786
2.744,-1.1755556355362755,-15.833351961738845
2.752,-0.12913266631557568,-15.57023761649541
2.76,1.0847554615385204,-15.176104010236461
2.768,2.475847919925691,-14.637622021110186
2.776,4.031721926561362,-13.95509800594112
2.784,5.712242536362498,-13.143842769643117
2.792,7.449314905765815,-12.233969218065052
2.8,9.154848011867573,-11.268401602339884
2.808,10.73559763945047,-10.297760143867473
2.816,12.111988260485274,-9.371779696406396
2.824,13.235256207222601,-8.526780679575916
2.832,14.098725365969894,-7.774388829046709
2.84,14.73792910332079,-7.0973437200503415
2.848,15.218390856940088,-6.458326937053224
2.856,15.613444593531602,-5.820756333409264
2.864,15.98099156643765,-5.175470171999129
2.872,16.345662080318235,-4.560139289201442
2.88,16.691617361660168,-4.059781219677321
2.888,16.967416487057182,-3.7846045641069495
2.896,17.100425108745892,-3.833626170198891
2.904,17.013709604600407,-4.259885715777315
2.912,16.639941218363884,-5.052563298118265
2.92,15.930204222408683,-6.141263194357899
2.928,14.859316820195971,-7.417686272661956
2.936,13.430606769878384,-8.760739815136855
2.944,11.680028618005153,-10.05303795110491
2.952,9.67679614038137,-11.183758107231466
2.96,7.516839331716075,-12.042858987902225
2.968,5.308679260834833,-12.517627650184787
2.976,3.1565945568233764,-12.50017257368743
2.984,1.1428462034360987,-11.906636219985192
2.992,-0.6829763604669307,-10.697550155343704
3.0,-2.3047563097417334,-8.890539092332082
3.008,-3.731575767474441,-6.561657337487176
3.016,-4.9852113467151575,-3.8389584273892132
3.024,-6.091028744004117,-0.8907655496491519
3.032,-7.073943695106495,2.090409090599916
3.04,-7.960584244260772,4.909697141141601
3.048,-8.78088734925179,7.394389851625946
3.056,-9.567138369243882,9.41500851012184
3.064,-10.347386169812763,10.89754085741778
3.072,-11.137882844899478,11.824398126083405
3.08,-11.939705671176638,12.225511603491906
3.088,-12.738500793850207,12.16482963926162
3.096,-13.510123426208835,11.725286593779563
3.104,-14.226315987272063,10.995298067031634
3.112,-14.859836287407019,10.058349852512487
3.12,-15.38837549705089,8.986507609759583
3.128,-15.79679178362327,7.837181830361221
3.136,-16.078964781239517,6.653333344540727
3.144,-16.236704823962246,5.464616045872044
3.152,-16.27812476684649,4.289427769829285
3.16,-16.214414116366616,3.1375326421228236
3.168,-16.056659772094676,2.0120447209645866
3.176,-15.812741842994589,0.91188649118692
3.184,-15.485326864431713,-0.1656096253203927
3.192,-15.07133002286132,-1.2225482631570088
3.2,-14.563637852235363,-2.259482546633222
3.208,-13.954473705805855,-3.275528404356863
3.216,-13.239069464433282,-4.268506723598899
3.224,-12.4192014269901,-5.234238064708385
3.232,-11.504895910264691,-6.163875460883977
3.24,-10.515002079318858,-7.040947569680696
3.248,-9.476768305624535,-7.840355419018576
3.256,-8.425042353392053,-8.531866630179096
3.264,-7.400388851992762,-9.087908392322175
3.272,-6.444792982253068,-9.493084126346517
3.28,-5.594955228043009,-9.752032776670127
3.288,-4.875004794133543,-9.891893802708763
3.296,-4.291483631280864,-9.959144976436287
3.304,-3.8332023716345325,-10.011787909770574
3.312,-3.475327071242812,-10.109747453491538
3.32,-3.1854322390959147,-10.306146105167084
3.328,-2.9286208732669547,-10.641392424722154
3.336,-2.670675341702761,-11.141146757726005
3.344,-2.379473525708483,-11.81734351967368
3.352,-2.026447592931402,-12.669985711039285
3.36,-1.5903546240829984,-13.688067168134218
3.368,-1.0628154644711543,-14.848571688924931
3.376,-0.45304203977598906,-16.11468940344325
3.384,0.21133729836263224,-17.436105971445443
3.392,0.8891881345232809,-18.753072993259146
3.4,1.5348483555286596,-20.005636337081626
3.408,2.1075499185662077,-21.144816111859857
3.416,2.5780312576274227,-22.142297923617306
3.424,2.931588128352856,-22.992894049785445
3.432,3.168122241477802,-23.70922464539431
3.44,3.3009747609028177,-24.31044503140401
3.448,3.354807711877926,-24.811068230369376
3.456,3.363052950494271,-25.21514147797221
3.464,3.3646218697070323,-25.518640528664577
3.472,3.3994539251622578,-25.718394712611435
3.48,3.503071040614796,-25.8230876314026
3.488,3.7011409586605826,-25.861633975330744
3.496,4.004920440160134,-25.88371347181772
3.504,4.408887378463114,-25.951129817946494
3.512,4.891349678361146,-26.121056655565972
3.52,5.418375334270448,-26.42731556818924
3.528,5.949729989191629,-26.86652711569817
3.536,6.445690414175818,-27.39507264766015
3.544,6.871603677383933,-27.93822841788206
3.552,7.200024853274035,-28.408841750043816
3.56,7.410797137611011,-28.729066256968302
3.568,7.490904453942061,-28.847946538062406
3.576,7.435608750310881,-28.74876355914156
3.584,7.252159927784076,-28.44460906463971
3.592,6.964533139586979,-27.963910995882284
3.6,6.615917330300214,-27.332449585493308
3.608,6.264256893193006,-26.559964852416737
3.616,5.969851397780129,-25.63815160965878
3.624,5.777203149661376,-24.550993201096578
3.632,5.698569563427782,-23.293885944572743
3.64,5.706519576264535,-21.892502652814013
