Time [s],Flexion(-)/extension(+),Radial(+)/ulnar(-) deviation
0.0,-0.21214744611316658,0.5983194378208688
0.008,-0.20680674865044993,0.5902654194056316
0.016,-0.20573481718796466,0.588769250515788
0.024,-0.20468075907184696,0.5873048544875742
0.032,-0.20381646219477614,0.5861728610998763
0.04,-0.20332192997291407,0.5856047038613965
0.048,-0.20324146308176025,0.5856730489751225
0.056,-0.20324210107984658,0.5859133304730983
0.064,-0.20385638043586798,0.5871058936557526
0.072,-0.20443883398479187,0.5883158991567509
0.08,-0.20497364206149807,0.5895688740848555
0.088,-0.20545168229972727,0.5909768885002529
0.096,-0.20584383846299892,0.5926321708048106
0.104,-0.20613242111598898,0.5946575670706675
0.112,-0.2062408534435989,0.5971456720916204
0.12,-0.20612052394156163,0.6001335036375841
0.128,-0.20562718623982826,0.6035657795539625
0.136,-0.2046591396638681,0.6072578955912262
0.144,-0.20309845171372543,0.6109728871708425
0.152,-0.2009215169186116,0.6143448915883466
0.16,-0.19809375616462868,0.6170542978912925
0.168,-0.1947273795749639,0.6188217541371205
0.176,-0.1909471746417875,0.6195124088599272
0.184,-0.1869266647145222,0.6192081426519093
0.192,-0.18284630712055036,0.6181201585849722
0.2,-0.17886625896357114,0.6166201281983741
0.208,-0.17505110716958144,0.6151621801190053
0.216,-0.1714325384355855,0.6141387977403726
0.224,-0.1679600460557688,0.6138412510260371
0.232,-0.16458785595676897,0.6143401388307808
0.24,-0.16122834697335858,0.6154798702873755
0.248,-0.15772262307966706,0.6169872776745269
0.256,-0.15397858278000454,0.6184189096964205
0.264,-0.14987891929592664,0.6193336545507372
0.272,-0.14529613467528496,0.6193857016594975
0.28,-0.14009907965359175,0.618342276427667
0.288,-0.13417251783657896,0.6160837792122038
0.296,-0.12736877088332596,0.6126778841721472
0.304,-0.11953957444421076,0.608258321461724
0.312,-0.11049739009050853,0.6030516711787107
0.32,-0.10009218496948614,0.5972650329082753
0.328,-0.08827465503281748,0.5911213875804869
0.336,-0.07515438917518427,0.5848143149296978
0.344,-0.061156826615961654,0.5784538563532895
0.352,-0.04694153283665479,0.5721302203810176
0.36,-0.03334448592791778,0.5658660458129827
0.368,-0.021230282367203798,0.5596229199085131
0.376,-0.011185354722486033,0.5533873728768521
0.384,-0.0034932106742857,0.5471458740929124
0.392,0.0018403415241608247,0.5408687806642168
0.4,0.00516415292398157,0.5345506891874428
0.408,0.006922873086365786,0.5282276239311017
0.416,0.007548092432653099,0.521913702417819
0.424,0.007429297695611898,0.5156292510864632
0.432,0.006796104939304606,0.5094197371871544
0.44,0.005761514315460559,0.5032906203680882
0.448,0.004386892380212241,0.49727400141016265
0.456,0.00267594617133365,0.49134909965749346
0.464,0.0006626581631794918,0.4855526712643436
0.472,-0.0016264932484912208,0.47985157988396365
0.48,-0.0041833187146776375,0.47424738005338823
0.488,-0.006931537903052716,0.46878838787481936
0.496,-0.009852148359879456,0.4635610594143535
0.504,-0.012890259815208761,0.4587049325659162
0.512,-0.016010349241882868,0.45440559133420977
0.52,-0.019178958831369972,0.4508314181061613
0.528,-0.02230749262636214,0.4481425244995201
0.536,-0.025306544535893198,0.4464154814854592
0.544,-0.02809304664471269,0.44567533038239426
0.552,-0.030582679878466877,0.4458019599094233
0.56,-0.03274532645498641,0.4465683053517982
0.568,-0.034563340406222574,0.44766264358315716
0.576,-0.036086120944850246,0.4487008290807685
0.584,-0.037365695429507295,0.4493639251428932
0.592,-0.0384402823773029,0.44946003973813864
0.6,-0.03941993321283143,0.44895862744397613
0.608,-0.04029486055212556,0.44807201790377876
0.616,-0.041209952593326715,0.4470143434870394
0.624,-0.04212619472602899,0.44604619801044565
0.632,-0.04313130881860153,0.4452199611539301
0.64,-0.044256088690777996,0.44440426931398086
0.648,-0.04553474837773814,0.44329968048568424
0.656,-0.04700710761251182,0.441577198983783
0.664,-0.04865778857162932,0.43905264942100874
0.672,-0.05045721558013719,0.43580458837616215
0.68,-0.0523239405275252,0.4322724170110636
0.688,-0.05419726396453128,0.4291270257706849
0.696,-0.05606395497922606,0.4271312124769435
0.704,-0.05784539154491012,0.42697408560082023
0.712,-0.05956984504288798,0.42897632132550595
0.72,-0.06115695333885693,0.4331470519578557
0.728,-0.06252384068140643,0.43914266394309637
0.736,-0.06359860813092608,0.4463562088774857
0.744,-0.064314380503748,0.4540988314162506
0.752,-0.06470197947956213,0.46164830410572355
0.76,-0.0647869452498285,0.4684841398808351
0.768,-0.06473420262691577,0.47420293418402937
0.776,-0.06474480515293116,0.4786417655306523
0.784,-0.0650598304836617,0.4817968530704848
0.792,-0.06582316879288977,0.48382408913503105
0.8,-0.06718400428282256,0.48495895153530066
0.808,-0.06918348172373229,0.48545600432151376
0.816,-0.07183514927454356,0.48555932814504343
0.824,-0.0750549719316929,0.48548550504084603
0.832,-0.07875474084809125,0.48537813770689003
0.84,-0.08281498898541872,0.48533657539939573
0.848,-0.08714256866460628,0.4853656068024085
0.856,-0.0916224905027557,0.48542878395617656
0.864,-0.09614449227985492,0.48542814688267333
0.872,-0.10061195752517245,0.48528329024591293
0.88,-0.10495074290073973,0.484872765723427
0.888,-0.10909683454217307,0.48413723208369336
0.896,-0.11299844751087133,0.4830496377509135
0.904,-0.11658994724567412,0.48154606031865205
0.912,-0.11975912769885534,0.47963177381296734
0.92,-0.12246220935581245,0.4772119105889577
0.928,-0.12454898624662768,0.47425965479103765
0.936,-0.12590580426362893,0.4707743043497753
0.944,-0.1263648080093991,0.46682064672276813
0.952,-0.12579623717170918,0.46257523812378715
0.96,-0.12401842780154979,0.4583822073576967
0.968,-0.12084913439973095,0.4548212432253757
0.976,-0.11592707497679301,0.45286213691073895
0.984,-0.10863997833409739,0.45398609981923993
0.992,-0.09777712723891069,0.4604301935291614
1.0,-0.03942885736907948,0.47920737655568546
1.008,0.008079687974308782,0.4986422900876252
1.016,0.07289509968892043,0.5281162396449708
1.024,0.1560993571354848,0.5683238854561816
1.032,0.25661544113967427,0.6179695340090301
1.04,0.371312996863545,0.6732625530295878
1.048,0.49586217758528545,0.727861421948934
1.056,0.6262875143430687,0.7736136343656748
1.064,0.7606014666035679,0.8019165882166734
1.072,0.8996565892450975,0.80548509835106
1.08,1.0467631500384367,0.7799976069495623
1.088,1.206215012523832,0.7252726805203125
1.096,1.3812292517737297,0.6454152212635782
1.104,1.5720087072911757,0.547904355027779
1.112,1.7750446398054003,0.4418728150818732
1.12,1.98361035481522,0.3363585111403349
1.128,2.1895107860751923,0.23869824706425707
1.136,2.385353969876984,0.15377626174303385
1.144,2.566524118345578,0.08388229178605244
1.152,2.7321084486228697,0.029150828417978922
1.16,2.884685721144373,-0.011840457863376045
1.168,3.029093556648752,-0.041341569554055956
1.176,3.170614305857502,-0.061926863105935884
1.184,3.313368311720153,-0.07605821668609831
1.192,3.459376645738445,-0.08561343759974487
1.2,3.608310103733994,-0.09167638656908897
1.208,3.7580697576524384,-0.09436436879944751
1.216,3.9057827324482304,-0.09313133142880463
1.224,4.048576631028537,-0.08731825483848529
1.232,4.184189159980032,-0.07690227858405449
1.24,4.311075358507648,-0.06294977537909897
1.248,4.428224267427516,-0.0479556059858161
1.256,4.535020199739764,-0.03545127388096858
1.264,4.631129286556116,-0.02943457153450279
1.272,4.716507192612853,-0.03359038415282576
1.28,4.791502424038623,-0.05052017779835818
1.288,4.856890416941827,-0.08133948082026
1.296,4.913694139466813,-0.12549404395134206
1.304,4.963083093649506,-0.18105689603900482
1.312,5.006085286559334,-0.2451154986730687
1.32,5.043605088565402,-0.3143268229678086
1.328,5.076443673737489,-0.38536141968762794
1.336,5.105550428473343,-0.45503567196770334
1.344,5.132050480103983,-0.5204949522471102
1.352,5.157331599845471,-0.5789708493066323
1.36,5.182910089770055,-0.6278970959477486
1.368,5.210223554257573,-0.6647370988541422
1.376,5.240528003588669,-0.687240888908957
1.384,5.274782530234467,-0.6935236912685105
1.392,5.3136995539925955,-0.6824006585169462
1.4,5.357742718261916,-0.6535784453775237
1.408,5.407215069836174,-0.6079654565956549
1.416,5.461978889214631,-0.5477838081832419
1.424,5.521527924973323,-0.47655204628018627
1.432,5.584803824096907,-0.39885451317377574
1.44,5.65030934341823,-0.3198806626260602
1.448,5.716346964212066,-0.24480956043908036
1.456,5.781383545558222,-0.17816503334355874
1.464,5.844503888887894,-0.1231501062704733
1.472,5.905636986251361,-0.08131255931990349
1.48,5.965604323613964,-0.05223458989211123
1.488,6.025864803335557,-0.033667503106063285
1.496,6.088002347656298,-0.02212115888958811
1.504,6.153282429209184,-0.013277305383210272
1.512,6.222374881808505,-0.0029427906897601035
1.52,6.295201197951939,0.012272495448258324
1.528,6.3711962052867,0.034458053224938334
1.536,6.449574389876196,0.06390274250638725
1.544,6.5296089903481125,0.09910710021176176
1.552,6.6108510674164105,0.137016532237791
1.56,6.693055525423418,0.17360685235406642
1.568,6.77601988024818,0.20473495490772703
1.576,6.859394788536211,0.22701855373448926
1.584,6.942581352255695,0.23856636673015635
1.592,7.0246956845663595,0.23934646128417986
1.6,7.10469777581503,0.23112924308490845
1.608,7.181462612900518,0.2170083976161464
1.616,7.253946950071141,0.20060640068940633
1.624,7.321192668417283,0.185352293086475
1.632,7.382384638967108,0.1736837595363902
1.64,7.436706667857446,0.1668871440439943
1.648,7.483254448601953,0.16486931799710025
1.656,7.5210782282343525,0.1665169326992398
1.664,7.549201532803902,0.17006635399982223
1.672,7.566852226826407,0.17360743173697996
1.68,7.573695825396158,0.17546393418569584
1.688,7.569845346166965,0.17442917905046582
1.696,7.555895618142316,0.16997023986098467
1.704,7.532728221156179,0.16215545795266834
1.712,7.501400909501954,0.15144162265141362
1.72,7.463001726917976,0.13857812045654114
1.728,7.418479086102278,0.12432964038946166
1.736,7.36868218940177,0.10933537397330495
1.744,7.314420348101451,0.09414714078725785
1.752,7.256633071384576,0.07934460599872466
1.76,7.1965567297068755,0.06556332385642212
1.768,7.1355975763036845,0.0535412973567519
1.776,7.075237773864625,0.04393805641750208
1.784,7.01691601680058,0.03724843441518434
1.792,6.9619380903416195,0.0338802870661153
1.8,6.911427080716785,0.034290624399197854
1.808,6.866209578187844,0.039149007644763305
1.816,6.82666905504657,0.04924184315409828
1.824,6.792778826769699,0.06528396691594317
1.832,6.764192145607178,0.08745457321993441
1.84,6.74038343256943,0.11524892242494202
1.848,6.720669577692011,0.1473646854922265
1.856,6.7045685376243584,0.18206067839492598
1.864,6.691926318167038,0.21785635014016075
1.872,6.683021760184997,0.254134293727041
1.88,6.678352201185365,0.29181733320332426
1.888,6.678412513188187,0.3331189356364585
1.896,6.6833443726298025,0.38119552369865156
1.904,6.693051461765036,0.4393272880107366
1.912,6.7073955860330745,0.5104719174945223
1.92,6.726288492154762,0.5970578877686777
1.928,6.749997679372731,0.7010517166742294
1.936,6.779049997177009,0.824034933518925
1.944,6.814332358724428,0.9672158716879508
1.952,6.857036914892355,1.1312797788172495
1.96,6.908509472702755,1.3165072842627645
1.968,6.970268658255681,1.522907677542851
1.976,7.043539644183597,1.7504232810887197
1.984,7.128975563013598,1.999353812064636
1.992,7.226168262289592,2.27036713115761
2.0,7.333410477754,2.564553617194144
2.008,7.447801914470773,2.8832732976150446
2.016,7.5658615469801465,3.227623558783184
2.024,7.684261489115578,3.598073307595508
2.032,7.800602480422083,3.9938993536643967
2.04,7.913881093710211,4.413005547276686
2.048,8.02461445901346,4.851601664758572
2.056,8.134381749871523,5.30445204316676
2.064,8.245187215882146,5.764950747559049
2.072,8.358612590038982,6.225559131092889
2.08,8.475196381583611,6.678246136177356
2.088,8.593896790200947,7.115302060447826
2.096,8.711873609030853,7.529884737671678
2.104,8.82480747168961,7.916902756964685
2.112,8.927490458885465,8.27334817773807
2.12,9.014948547978701,8.598285297048303
2.128,9.08365850734683,8.89252752813528
2.136,9.13267303908487,9.158174960867418
2.144,9.16388063408323,9.397972266881968
2.152,9.18190279836429,9.61500528690777
2.16,9.192799385754709,9.812303720215263
2.168,9.202686849505602,9.992594486810589
2.176,9.216474103500204,10.158039632434665
2.184,9.236815549680646,10.310175878914658
2.192,9.2641534098687,10.449855865804015
2.2,9.297142835420274,10.577266494417474
2.208,9.333428450444377,10.692066697698177
2.216,9.370488608813192,10.793434118198427
2.224,9.406282020500846,10.880308289196618
2.232,9.439670631840746,10.951501177690448
2.24,9.47049238497229,11.005715555290408
2.248,9.499401984419947,11.041606073377302
2.256,9.527576613089145,11.057831407484858
2.264,9.556451749178951,11.05321005574225
2.272,9.587323599237878,11.027064444033787
2.28,9.621159924436403,10.97949356734788
2.288,9.65845417615602,10.911547122721426
2.296,9.699389043728885,10.825284931851783
2.304,9.744118533846018,10.723498429128442
2.312,9.79315228339691,10.60915325087483
2.32,9.847697337012889,10.485111713292179
2.328,9.909838906266868,10.353794393005161
2.336,9.982308140181637,10.217216323536205
2.344,10.068081346638513,10.077532190421266
2.352,10.16969902809452,9.937486261342338
2.36,10.288689144216967,9.800751381989517
2.368,10.425232313535684,9.671670846130235
2.376,10.578357240075052,9.554705004343305
2.384,10.746326196056128,9.45322744713344
2.392,10.926936710191185,9.36868335755092
2.4,11.117795697398964,9.30007291278445
2.408,11.316033774117068,9.24412865275899
2.416,11.518336431787192,9.196051876366015
2.424,11.721029599733527,9.150461830402506
2.432,11.920401558096199,9.102389349108204
2.44,12.112905075923114,9.04793798387438
2.448,12.295234590637149,8.98462175318353
2.456,12.464299175842287,8.91134019876629
2.464,12.617132606595693,8.828078296237576
2.472,12.750794342939166,8.735280305605347
2.48,12.862279750362083,8.633212027578704
2.488,12.94838089186515,8.521276577044878
2.496,13.00543283919352,8.397082953934387
2.504,13.028982807707655,8.255423951142488
2.512,13.013499294238457,8.086970839245202
2.52,12.952762687269121,7.87686288152437
2.528,12.840860052975618,7.603615636565811
2.536,12.674198635610965,7.238519573282276
2.544,12.453553546706626,6.746487101221027
2.552,12.185910890404541,6.0886796215047925
2.56,11.884763631249637,5.227142835751599
2.568,11.56883015015805,4.132526441616835
2.576,11.258594561266422,2.7934328225400478
2.584,10.972127227685904,1.2259071850226433
2.592,10.72121710315597,-0.5199983171639132
2.6,10.509628325114084,-2.3602986976394678
2.608,10.333872598118138,-4.186731984222605
2.616,10.18534049232685,-5.885269634180321
2.624,10.053065566424289,-7.3602888212549065
2.632,9.926457773758909,-8.556755546078323
2.64,9.79808293218518,-9.472901447480233
2.648,9.666038322045976,-10.158488848127263
2.656,9.53545286747691,-10.698585319325248
2.664,9.417575726339754,-11.188447246126382
2.672,9.326217279804457,-11.707990349023907
2.68,9.272994353797014,-12.303988260131485
2.688,9.263257476544187,-12.984330557412134
2.696,9.294128199558296,-13.724189379687273
2.704,9.35487983665833,-14.47987508667315
2.712,9.428883265350658,-15.20476737432525
2.72,9.49630094321196,-15.862237400268175
2.728,9.536093949446158,-16.43360566963465
2.736,9.527230770557532,-16.92053677319709
2.744,9.448838468580051,-17.343029478425862
2.752,9.279656302444092,-17.73516105652954
2.76,8.997943367022788,-18.138284011931553
2.768,8.583299311576615,-18.592496932526807
2.776,8.02150734576893,-19.126629965771816
2.784,7.3115396670078585,-19.748576311804168
2.792,6.4722408923453685,-20.43887172428912
2.8,5.544751123640861,-21.150979138730186
2.808,4.58727740685192,-21.819637067777524
2.816,3.6614094061018276,-22.377205528694734
2.824,2.8142292977061536,-22.774072993125046
2.832,2.0648085335350594,-22.994821709123
2.84,1.4022973435622323,-23.062889441057518
2.848,0.7969123511098988,-23.029644678799702
2.856,0.21923180652492316,-22.951158249212348
2.864,-0.3410772259155731,-22.863215885821177
2.872,-0.8638833415759563,-22.763857393894558
2.88,-1.2992614675277345,-22.610806446068523
2.888,-1.5798255708035356,-22.334879251777853
2.896,-1.640443736638358,-21.86533773581466
2.904,-1.4375024168319637,-21.157397612192153
2.912,-0.9600205863834737,-20.21095549445614
2.92,-0.22884322344008776,-19.073748175022324
2.928,0.7134958701537953,-17.829623071418606
2.936,1.8154129681452713,-16.580342318335678
2.944,3.0259054685829514,-15.429618801841455
2.952,4.297763020141481,-14.473373519797743
2.96,5.585643264442017,-13.793153607131897
2.968,6.84307663386083,-13.44846528265023
2.976,8.022897073000742,-13.466101543202162
2.984,9.082583415174431,-13.830257389333777
2.992,9.992499299381556,-14.479605453256573
3.0,10.741839866544733,-15.316754650466974
3.008,11.338119509712394,-16.22874980680281
3.016,11.800806468149155,-17.113131247985
3.024,12.153017426605825,-17.900699445888325
3.032,12.415403104521646,-18.568642741744384
3.04,12.603356968656172,-19.140521452971704
3.048,12.725967478675788,-19.674193276044676
3.056,12.785997300096678,-20.240696002956906
3.064,12.780293626010803,-20.902055452333567
3.072,12.701524811003605,-21.694456417737975
3.08,12.54188763703544,-22.62170563532762
3.088,12.297212766869583,-23.659742696547713
3.096,11.968896340387857,-24.76804012508395
3.104,11.563029986598032,-25.901965674145856
3.112,11.087596581273766,-27.020818360424457
3.12,10.549779089518859,-28.089847663304656
3.128,9.95530618457561,-29.078727134777488
3.136,9.309186157986371,-29.959510177553998
3.144,8.617669981175476,-30.706947583370233
3.152,7.889850144525256,-31.300883258306044
3.16,7.1379119698969085,-31.72949384186687
3.168,6.376597541945307,-31.99138598837259
3.176,5.621131728146198,-32.09495372286436
3.184,4.8843299805777844,-32.056562123537425
3.192,4.174857266312442,-31.89711161159603
3.2,3.4974895566855526,-31.638528896849035
3.208,2.855799310814855,-31.30091324500619
3.216,2.2558508050079147,-30.90171101926564
3.224,1.708602036442978,-30.45661830198489
3.232,1.228868829478537,-29.98247183788839
3.24,0.8310321548243231,-29.499446218544175
3.248,0.5236980192763377,-29.031531394750235
3.256,0.3063421388984143,-28.603210818288783
3.264,0.1693677272561421,-28.234358015947645
3.272,0.0968813293167353,-27.93583912929335
3.28,0.07056938766098099,-27.70829514845971
3.288,0.07326887528917161,-27.544238918800794
3.296,0.09119611889789202,-27.4316918986121
3.304,0.11555392922633864,-27.35680519956321
3.312,0.14323779425828315,-27.305175506076655
3.32,0.17696312863626218,-27.26210557158559
3.328,0.2253006299536438,-27.213186152706054
3.336,0.30246060245265194,-27.14588356989331
3.344,0.42696313680015135,-27.051485132358003
3.352,0.6180440378735671,-26.92667612442674
3.36,0.8903109361561603,-26.77332414836531
3.368,1.248905389116875,-26.5965096886313
3.376,1.6874170835898066,-26.40197799102553
3.384,2.189762959630791,-26.194451872898085
3.392,2.734134934262874,-25.97764748179176
3.4,3.2969764053074284,-25.755701787425505
3.408,3.8552179370179562,-25.534347882924962
3.416,4.386859731624746,-25.32129172626011
3.424,4.871274302943336,-25.12573529485159
3.432,5.29090186582104,-24.957481228178686
3.44,5.63449857160819,-24.8263595413946
3.448,5.901171027289387,-24.741127429413503
3.456,6.1024116742202015,-24.708327547143064
3.464,6.260322710088639,-24.730496310954646
3.472,6.401696187576395,-24.804475528494716
3.48,6.550348516999658,-24.919617773599775
3.488,6.721001122010349,-25.057101818957015
3.496,6.916531569853027,-25.189663211870652
3.504,7.128399520893815,-25.284328610890938
3.512,7.338899391767339,-25.308020591664054
3.52,7.5247387314586325,-25.235891997915072
3.528,7.660656733308101,-25.0598583756877
3.536,7.722861240262753,-24.79307525032371
3.544,7.69129389257895,-24.467875902213226
3.552,7.551329042085809,-24.126782487280455
3.56,7.295890793213347,-23.809362964719682
3.568,6.928644734881153,-23.539600505415514
3.576,6.467625263753514,-23.318110104996276
3.584,5.947406388623549,-23.1230007010453
3.592,5.415918538603839,-22.91941592042407
3.6,4.924556125480247,-22.674697005539443
