Time [s],Flexion(-)/extension(+),Supination(+)/pronation(-)
0.0,-32.55886917428635,-42.00380317872433
0.05,-32.554339323760544,-42.03022197846204
0.1,-32.549651143292785,-42.09660729257889
0.15,-32.56723095166625,-42.130000751563955
0.2,-32.58432972625669,-42.13178792650009
0.25,-32.61195436116621,-42.13865753347649
0.3,-32.637746585998485,-42.13493472262547
0.35,-32.672341442116064,-42.128441421392445
0.4,-32.72347749647117,-42.14439495954644
0.45,-32.78766616296593,-42.17333807392503
0.5,-32.822008554120615,-42.20281655252738
0.55,-32.861707418829276,-42.17310274639084
0.6,-32.894161790090365,-42.13180545007596
0.65,-32.91431814953411,-42.12199924291985
0.7,-32.92840961097221,-42.13840408176856
0.75,-32.91330941098962,-42.167384442290995
0.8,-32.912095911077806,-42.16828982423916
0.85,-32.921461596527436,-42.147514600186874
0.9,-32.92307427173762,-42.10374144370004
0.95,-32.92610873569623,-42.02399580797423
1.0,-32.94433105996428,-41.9456714248915
1.05,-32.97501218191021,-41.8925477935392
1.1,-32.98396937697141,-41.85651169022241
1.15,-32.956778275488176,-41.864382714309365
1.2,-32.95102634688097,-41.83507904952543
1.25,-33.02579434162344,-41.74952362639649
1.3,-33.149412790673196,-41.67568081221732
1.35,-33.35652656899558,-41.56539469944622
1.4,-33.58018258818819,-41.4327111096952
1.45,-33.79244277456129,-41.29110388761252
1.5,-34.01126103015982,-41.147591512763945
1.55,-34.23514625151955,-40.98042212177506
1.6,-34.56927973613561,-40.6827166209365
1.65,-35.065684862597294,-40.305763224848334
1.7,-35.68948053307838,-40.120498863489644
1.75,-36.420287884311136,-39.920623892123494
1.8,-37.361269271177385,-39.46831057318172
1.85,-38.70281596755082,-39.18842519744847
1.9,-40.54631883924025,-39.25501465679285
1.95,-42.763365442376205,-39.44204853502877
2.0,-45.08680348254749,-39.89486561854568
2.05,-47.438450159024924,-40.731799978556005
2.1,-49.76710981520858,-41.64323764674103
2.15,-51.81119448181739,-42.35545116966556
2.2,-53.48654160345419,-43.12941679507546
2.25,-55.02773364270326,-44.24128560559698
2.3,-56.728715349618625,-45.68347065530556
2.35,-58.43413780829781,-47.285384802538836
2.4,-59.850244892811546,-48.92436264454409
2.45,-60.69446655343068,-50.427706661170994
2.5,-60.95551284621903,-51.84961947860233
2.55,-60.79888152840724,-53.36478717550441
2.6,-60.330542687149354,-54.98222533222483
2.65,-59.454893163103094,-56.717931003338755
2.7,-58.69544888824599,-58.24551200041676
2.75,-58.09371428065028,-58.825941701448535
2.8,-57.521490997115954,-58.29655576663985
2.85,-57.030442869143045,-57.923455577317185
2.9,-56.37102555724552,-58.20607459808798
2.95,-55.46042774316272,-58.70796675730606
3.0,-54.61468332006751,-59.25287215548674
3.05,-54.00273350729506,-59.01981671255569
3.1,-53.54077168262623,-57.776285756151225
3.15,-52.978820091680255,-57.22262466360017
3.2,-52.56653595824597,-58.60405864794513
3.25,-52.686864208286195,-59.87965463081272
3.3,-53.258263504603455,-59.84522018571158
3.35,-53.96451213728312,-59.73502658425931
3.4,-54.559552842442045,-59.99592165081603
3.45,-54.933362028101875,-60.078184340418304
3.5,-55.2068893714512,-59.828434137947575
3.55,-55.61978050694062,-59.38019628138858
3.6,-56.171455996584385,-58.70457463701227
3.65,-56.70681474920504,-58.192226892337224
3.7,-57.052650990077716,-58.18683279366227
3.75,-57.368795557040194,-58.40719380043905
3.8,-57.79959420520187,-58.461440242135296
3.85,-58.319648573254604,-58.37613548963974
3.9,-58.86945505865094,-58.20426785013583
3.95,-59.292571921382915,-57.98201620832138
4.0,-59.549218368938995,-57.873261362462344
4.05,-59.784998065236394,-57.81070713874113
4.1,-60.13660368047117,-57.688222346350045
4.15,-60.53495656672228,-57.67383166162257
4.2,-60.813404729884965,-57.87709333861517
4.25,-60.92623003302685,-58.18632237999974
4.3,-60.85714900812066,-58.385596417846415
4.35,-60.58846735528184,-58.42613682410263
4.4,-59.989376190357746,-58.464641312373196
4.45,-59.12021527996054,-58.58081281776979
4.5,-58.25546705538903,-58.705026798946854
4.55,-57.52089838932761,-58.70392736101429
4.6,-56.934614921958214,-58.635239366748074
4.65,-56.414979886608734,-58.39851722674982
4.7,-55.94707629251667,-57.82319638581973
4.75,-55.607294435257536,-57.2012287055022
4.8,-55.45210263320146,-56.909721056970135
4.85,-55.488095603285174,-56.78910356170262
4.9,-55.64050222597799,-56.287762963083495
4.95,-56.00105780115437,-55.599907770148874
5.0,-56.49397787044626,-55.0780401627944
5.05,-57.08108426302433,-54.79483996534125
5.1,-57.48230841540589,-54.57781756449298
5.15,-57.57831062010036,-54.695146693491346
5.2,-57.618764568330974,-54.92391282318007
5.25,-57.89986550170612,-54.86610904958529
5.3,-58.30833076392057,-54.77456879211725
5.35,-58.57284805652175,-54.981873145529036
5.4,-58.56279264702414,-55.637201064097944
5.45,-58.6885520444509,-56.386869760714795
5.5,-59.114774056690244,-56.807653038097925
5.55,-59.6690941226045,-57.24512542427702
5.6,-60.06096793415101,-58.053391866812646
5.65,-60.24737263973058,-58.54304371108145
5.7,-59.967186682827155,-58.53266575493118
5.75,-59.19620389653116,-58.534372155717776
5.8,-58.000415645763795,-58.667746062529496
5.85,-56.69368580848043,-58.78399979713002
5.9,-55.336482296839264,-58.42802705242023
5.95,-53.983086284179,-57.91920479684754
6.0,-52.8503531864187,-57.62412916174206
6.05,-51.99695316904272,-57.10625020938345
6.1,-51.47345004764658,-56.369458166664835
6.15,-50.940706379025386,-55.49172990002409
6.2,-50.476943236091195,-55.02743722568986
6.25,-50.45279840554949,-54.79198613874432
6.3,-50.94633131375942,-54.3450061845306
6.35,-51.31501684317023,-53.66114999784953
6.4,-51.29070024519896,-53.462309190180065
6.45,-51.39511156523991,-53.61757489748656
6.5,-52.12124720431042,-53.235039059871745
6.55,-53.25040890772143,-52.687461738535234
6.6,-54.230081868526185,-53.13829283455189
6.65,-54.96173863288823,-54.486232894085305
6.7,-55.93532918614679,-55.72841283448611
6.75,-56.91575715399489,-55.88356031068814
6.8,-57.29365766170372,-56.07336297910568
6.85,-57.11492395622695,-57.0485531969778
6.9,-56.80056138354535,-58.22409675246606
6.95,-56.737787548011724,-59.07555766729902
7.0,-56.997816405525384,-59.55509718332266
7.05,-57.10092458864767,-59.71352461078343
7.1,-56.74263561542711,-59.658903709371764
7.15,-56.198131061856515,-59.294470090185335
7.2,-55.67020254221739,-58.553493936533314
7.25,-54.83398536421668,-57.2773134473317
7.3,-54.104457264949886,-56.49450545980592
7.35,-53.57813200571975,-56.24728052909762
7.4,-52.95646275376862,-56.0032356446495
7.45,-51.85189485149163,-55.87061739452758
7.5,-50.562574340029464,-56.429316521805355
7.55,-49.60577377284308,-57.75835775514546
7.6,-49.21477053962161,-58.715413890762534
7.65,-49.344633066975064,-58.7733036227218
7.7,-49.57073193854594,-58.45304785820665
7.75,-49.621972317030185,-58.331392235780946
7.8,-49.43257130512136,-58.11866112713556
7.85,-49.36908184227477,-57.899766085252075
7.9,-49.35709191496006,-57.28734988584728
7.95,-49.390409002561185,-56.65849692932208
8.0,-49.36814506974657,-56.00191931412988
8.05,-49.36443726416413,-55.500442883280385
8.1,-49.49522974426798,-55.02316779940035
8.15,-50.03345502234655,-54.35043287595968
8.2,-50.71731819198208,-53.57289140877017
8.25,-51.203469645152026,-52.849030430379955
8.3,-51.42457718692887,-52.461160136441464
8.35,-51.66226634985203,-52.377106228224385
8.4,-52.257874526743635,-52.264903894005705
8.45,-53.11131216413488,-52.03323551885501
8.5,-53.93974594982828,-51.9982313893513
8.55,-54.561599542888324,-52.01383530510335
8.6,-54.920235111860904,-52.095124069912565
8.65,-55.14117951135996,-52.611203767968355
8.7,-55.56828886283451,-53.37337099974961
8.75,-56.16953586464078,-53.93688558408803
8.8,-56.80210858808022,-54.54948310367494
8.85,-57.15336484539297,-55.014090579079124
8.9,-57.17140630667067,-55.533723933839454
8.95,-56.88822161934346,-56.01328124014158
9.0,-56.446960430978116,-56.19693875632184
9.05,-55.805061542814954,-56.02808281944291
9.1,-55.05934955521511,-55.90325239666424
9.15,-54.3456440223138,-55.61329209955955
9.2,-53.58588417420883,-55.287514681098486
9.25,-52.68127097175925,-55.474666489123365
9.3,-51.65442552535525,-56.126444298993945
9.35,-50.872532830167394,-56.57603479691934
9.4,-50.58535847759495,-56.080304083470814
9.45,-50.38832566839928,-55.05774740106293
9.5,-49.90023267575388,-54.526043372085525
9.55,-49.35647524124136,-54.602863283435205
9.6,-49.06577515327085,-54.69400088717358
9.65,-49.11138521896286,-54.57344913503183
9.7,-49.52714257529515,-54.09149352941042
9.75,-50.02139686757746,-52.73728770355156
9.8,-50.11608377971101,-51.43610722524468
9.85,-49.760314402032776,-51.51094534873371
9.9,-49.16199817796943,-51.89476924260576
9.95,-48.66523177655903,-51.7278851178828
10.0,-48.72562528061947,-50.82191467483358
10.05,-49.08125915850968,-49.455227949122076
10.1,-49.46439455082928,-48.593544861995134
10.15,-49.457027851426155,-48.60717922009583
10.2,-49.49097644567343,-48.81857730698063
10.25,-49.93433057382128,-48.38117508149346
10.3,-50.59531184633608,-47.58719783260184
10.35,-51.086745194689826,-47.23622787764232
10.4,-51.24913690289525,-47.48677437828597
10.45,-51.01811259220246,-47.88655849669003
10.5,-50.65208902573558,-48.453603030120945
10.55,-50.45654154839214,-48.87896998682196
10.6,-50.47528419023008,-49.36011839102808
10.65,-50.493984915898864,-49.628780146432106
10.7,-50.4943886315787,-49.566181297212765
10.75,-50.64799596549713,-49.23756763792221
10.8,-51.06656162428697,-48.792323640641904
10.85,-51.63293589236686,-48.48239336805867
10.9,-52.01304231822069,-48.41580952973356
10.95,-52.36248059465054,-48.445305604932045
11.0,-52.75811428705376,-48.93523376363936
11.05,-52.88645080500313,-49.79891142340931
11.1,-52.951300217654186,-50.61532122895566
11.15,-53.19946707358757,-51.15422978134282
11.2,-53.358168919081585,-51.512483174610914
11.25,-53.031316929946094,-52.03499473542664
11.3,-52.352847028019454,-52.61306972763071
11.35,-51.77488958089447,-52.71295334345451
11.4,-51.4105843096922,-52.248145324624204
11.45,-50.941239841563124,-51.40566009316517
11.5,-50.131948969770704,-51.117554314046174
11.55,-49.267753925392086,-51.832296616557144
11.6,-48.66552270126632,-52.586615926451636
11.65,-48.36462294714351,-52.44534397846634
11.7,-48.31601133649874,-51.6597683189135
11.75,-48.02605078955317,-50.85219144449182
11.8,-47.431101649991824,-50.456726779059764
11.85,-46.689050705735525,-50.163046240721876
11.9,-46.31762157724204,-50.03722647097707
11.95,-46.3658869805752,-49.627047172969256
12.0,-46.779015412587455,-49.03821242635681
12.05,-47.27967601366132,-48.27608816218081
12.1,-47.74401621463985,-47.72693488543565
12.15,-48.29318256490532,-47.126277282837684
12.2,-48.88313480323719,-46.395103152242136
12.25,-49.60492600648793,-45.508524876134594
12.3,-50.16447292116912,-44.63647386244104
12.35,-50.39884578057557,-44.21940569134561
12.4,-50.69054064215644,-44.01260697550693
12.45,-51.16722762185039,-43.892686966147124
12.5,-51.67345412078818,-44.04523938650887
12.55,-52.11850414678825,-43.986021322662424
12.6,-52.25233012891048,-44.047829475561784
12.65,-51.98771576078552,-44.7766519822565
12.7,-51.75767812186636,-45.42741575226068
12.75,-51.89546129501232,-45.63056640502842
12.8,-52.02240001872581,-45.6557868331954
12.85,-52.06024051510214,-45.99438375358663
12.9,-52.01036145217875,-46.64725957657739
12.95,-52.073769436686874,-47.13807490221882
13.0,-52.28368803466386,-47.39199058622788
13.05,-52.281543324499886,-47.55875118221771
13.1,-51.82188196251123,-47.901702117927805
13.15,-51.13978905916157,-48.38334723577632
13.2,-50.35592065597347,-48.72411140289022
13.25,-49.510101949858104,-49.001448856505746
13.3,-48.760904482359365,-49.2313503654883
13.35,-48.36643083616942,-49.05663233383172
13.4,-48.15374477787283,-48.53361782847216
13.45,-48.09457744893764,-47.93928824289118
13.5,-48.123947052324134,-47.66906593194207
13.55,-48.163521840401685,-47.72396244754881
13.6,-48.38614500409971,-47.87224596995131
13.65,-48.79360290210256,-48.00281890166501
13.7,-49.14723204518941,-48.215889747911625
13.75,-49.33649310164684,-48.67005595112446
13.8,-49.474952765769686,-49.23944493527677
13.85,-49.720814122448196,-49.63257079787535
13.9,-50.11425650227704,-49.79545688380822
13.95,-50.48256789134423,-50.02855545555896
14.0,-50.66392021443204,-50.48417307704747
14.05,-50.70151676527058,-50.9421096370168
14.1,-50.61742820214281,-51.264288002139466
14.15,-50.425534386536924,-51.36649553121367
14.2,-50.22190839924108,-51.290275832431156
14.25,-50.001673705071966,-51.24663560041117
14.3,-49.7900625878329,-51.21430913315058
14.35,-49.451274334094755,-51.5248043133961
14.4,-49.0783033329348,-52.243062740457084
14.45,-48.949225206897886,-53.17595172539147
14.5,-49.281064414162145,-53.65396498596932
14.55,-49.89157589440856,-52.998609635175605
14.6,-50.40307196871104,-51.70823095681092
14.65,-50.57649967814281,-50.644785521467846
14.7,-50.513711696508544,-50.0620120468483
14.75,-50.27695857630958,-49.851588182639155
14.8,-50.003646579239565,-49.738124330846965
14.85,-49.71482399665696,-49.410693077272846
14.9,-49.28013313733619,-48.71379897434139
14.95,-48.691858665963686,-48.02444954946481
15.0,-48.1558443950692,-47.89648917291908
15.05,-48.24579834404412,-48.45790567572303
15.1,-49.365745987411,-49.070682911474115
15.15,-50.97381736176397,-48.85411980139346
15.2,-52.76363160546676,-47.57691043150699
15.25,-54.55244127351302,-46.33331577106188
15.3,-56.472642690563,-46.713998920617854
15.35,-59.435677397998184,-48.095120710335685
15.4,-62.86116742625564,-48.812840575579024
15.45,-65.83169489276507,-48.885602423667336
15.5,-67.85628250929086,-48.473526491441326
15.55,-68.83996434238507,-47.72966044665502
15.6,-68.61597143784599,-46.85063034294974
15.65,-67.06030589513604,-46.07500324370033
15.7,-64.84774556786434,-46.03706351376133
15.75,-62.79778417487039,-47.16971018789597
15.8,-60.947837006403624,-48.43098856745983
15.85,-59.33629497005848,-49.755670859948324
15.9,-58.81946942958534,-51.327536525088114
15.95,-59.6007677106359,-51.279987095473196
16.0,-60.57717921166789,-49.871302309730396
16.05,-60.84376101045416,-49.20067065636767
16.1,-60.79361687450457,-49.263222442728
16.15,-61.04596977388302,-49.14737352653731
16.2,-61.29610194745657,-48.1561082762484
16.25,-61.601001965510896,-46.43767799240273
16.3,-61.204618215025356,-45.77863804422424
16.35,-59.99431429416076,-47.71288118596386
16.4,-58.973379301650525,-50.71567936535246
16.45,-59.129273109443915,-51.97594047151985
16.5,-60.09537075695452,-51.757046330515
16.55,-60.94524762198245,-51.375860735921975
16.6,-61.08990425496006,-51.43768589628051
16.65,-60.78932561156383,-51.74941026300702
16.7,-60.90765737063094,-51.84989657214354
16.75,-61.390965711783124,-51.712029386392906
16.8,-62.27888481757186,-51.65402003385009
16.85,-63.70244369101839,-51.72933377499947
16.9,-66.28148058732798,-52.258248761711
16.95,-68.70597792090972,-52.03274372502745
17.0,-69.59368978701953,-50.49277970223605
17.05,-69.45227614191337,-48.66226397454415
17.1,-69.29089476727538,-47.04623639686484
17.15,-69.2412393828303,-45.87689657421853
17.2,-69.08016690011243,-45.11683569756598
17.25,-68.82267150720602,-44.28049399132438
17.3,-68.4242251440634,-43.552686438387155
17.35,-67.80995426270951,-42.92891333505602
17.4,-67.16412936693877,-42.24899072845972
17.45,-66.52081174555033,-41.495723224912766
17.5,-65.67564346720489,-41.36887765815287
17.55,-65.22545827046352,-41.679348523875326
17.6,-65.35572015467838,-41.13707792499692
17.65,-65.63824913794177,-40.634362897557764
17.7,-65.49914055116844,-41.28581386177897
17.75,-65.53712971008082,-42.34543217359814
17.8,-66.33453974225121,-43.12767275047157
17.85,-67.07296978886716,-43.445394482875464
17.9,-67.29142463982772,-43.50926759424256
17.95,-67.28541102981154,-42.90213558375787
18.0,-67.29714821498926,-42.30450441279812
18.05,-66.89223841918685,-42.36064394150226
18.1,-66.55018076769778,-42.58406744339187
18.15,-66.65549710319618,-42.61541338542404
18.2,-66.58144846899312,-42.73299877905123
18.25,-66.55814810445663,-42.67788828731019
18.3,-66.60772782345303,-42.572205633692164
18.35,-66.64987027674529,-43.06360313484043
18.4,-66.43212968344868,-44.10012070595847
18.45,-66.19541179611807,-43.66013176710302
18.5,-66.42585069203255,-43.047825262683354
18.55,-66.88774452330686,-43.704610551845306
18.6,-67.27841896548253,-44.712204838454305
18.65,-68.07107973529493,-44.751820118501044
18.7,-68.51938895996089,-44.547546293398526
18.75,-68.33803870305925,-44.2963797079019
18.8,-67.60765879982597,-43.737163138518014
18.85,-66.7128342246467,-42.617276649663076
18.9,-65.61720022794566,-42.455325032875834
18.95,-64.75587009964299,-43.47821724265389
19.0,-64.23492551574343,-44.17214940063158
19.05,-64.0317810283866,-43.85854856375885
19.1,-63.55380602370731,-43.506480504843545
19.15,-62.896261581562875,-44.124085633480874
19.2,-62.34912576848528,-45.55831220597339
19.25,-62.37298659079167,-47.382256494320316
19.3,-63.02977680732143,-48.98351647828327
19.35,-63.97645248047402,-49.63341966103232
19.4,-64.56388767107882,-49.28316151734509
19.45,-64.33816453457518,-48.90124124837852
19.5,-63.43447796833843,-48.96705752923055
19.55,-62.51145784299327,-49.23348650826954
19.6,-62.08245878680289,-49.42990588170487
19.65,-62.10665280957248,-49.56394796000612
19.7,-62.177416488744946,-49.74519356715598
19.75,-62.06349111284522,-50.0311152255058
19.8,-61.86997532391234,-50.37161437665899
19.85,-61.6526145686781,-50.608324981116446
19.9,-61.42908912672609,-50.68555590134115
19.95,-61.22611684862862,-50.6412642572355
20.0,-61.230394107383795,-50.621674204725245
20.05,-61.42469062568786,-50.68409844265709
20.1,-61.673027395119384,-50.731124065751146
20.15,-61.90364791112,-50.80229028692817
20.2,-62.04731534858443,-50.89129791354391
20.25,-62.201414005362075,-50.91529195319968
20.3,-62.45514714507177,-50.91461044095424
20.35,-62.874766137448226,-50.955336669605934
20.4,-63.3473644307577,-50.96588688634709
20.45,-63.655291831088775,-50.85651986991316
20.5,-63.75826943706132,-50.70590420377141
20.55,-63.76550980228842,-50.556512981360974
20.6,-63.8499618475131,-50.32124186400149
20.65,-64.00303487563473,-50.05663327251824
20.7,-64.1626215958413,-49.96047026598204
20.75,-64.2583963836815,-49.931610184760004
20.8,-64.32124109878136,-49.88735147114575
20.85,-64.33525596425862,-49.779246529872104
20.9,-64.34257400418694,-49.65723182254522
20.95,-64.3173272684136,-49.491043739780864
21.0,-64.24299471000317,-49.34254220735318
21.05,-64.21173009486964,-49.22805198118716
21.1,-64.22934330302556,-49.130210212779986
21.15,-64.22740267385981,-49.02460303995972
21.2,-64.20217392022798,-48.90046529364959
21.25,-64.11517065325715,-48.7340560722067
21.3,-63.93181521175836,-48.55916050812186
21.35,-63.70164890387525,-48.48623222573357
21.4,-63.487716671590285,-48.45783856359799
21.45,-63.37045084043175,-48.46510283496717
21.5,-63.266036652516576,-48.384923138145
21.55,-63.16435812686117,-48.24960157864195
21.6,-63.07087469647335,-48.14698481578945
21.65,-63.03892702979373,-48.1167437966472
21.7,-63.02013796922738,-48.07047097270848
21.75,-63.0262283379741,-48.00506955633425
21.8,-63.06492231665548,-47.884575636948256
21.85,-63.099184325921804,-47.73799521114407
21.9,-63.03694338787331,-47.616445027277436
21.95,-62.87992770648483,-47.522448510830266
22.0,-62.803208455476714,-47.520053952057765
22.05,-62.805181624638664,-47.473329505487136
22.1,-62.78365425478608,-47.31267950955898
22.15,-62.6709715719229,-47.197670510859595
22.2,-62.56543436634574,-47.26599384811145
22.25,-62.510945102482246,-47.296864089039154
22.3,-62.521459072178395,-47.26375179818919
22.35,-62.56332027219453,-47.29031878868825
22.4,-62.597528617100195,-47.1895605884191
22.45,-62.64092839091314,-46.88921561187205
22.5,-62.752869034966174,-46.56585981499134
22.55,-62.70954214979177,-46.36307505750024
22.6,-62.35945762063719,-46.52161145141787
22.65,-61.79194547343719,-47.282573216099514
22.7,-61.183254092350374,-47.9218872600494
22.75,-60.588457611742626,-47.9506619100637
22.8,-60.11623725649159,-48.19296552526193
22.85,-59.885252440910925,-48.92973837491263
