Time [s],Anterior(+)/posterior(-) tilt,Lateral tilt left(-)/right(+),Rotation left(+)/right(-)
0.0,-0.8279924700740607,-0.06063044839589259,9.908888501598472
0.05,-0.854265771565514,-0.054599018003902704,9.888676012066075
0.1,-0.8701551283742692,-0.052126674575460254,9.88358826081969
0.15,-0.8847548428689116,-0.04689703054579541,9.884969854931732
0.2,-0.9011420897650096,-0.03655729169118388,9.883702749705353
0.25,-0.9280879140590796,-0.021678239431974243,9.87711237527039
0.3,-0.9538187826068621,-0.009232222810956802,9.866990056978171
0.35,-0.9784621990957209,0.0004402691408991676,9.853202225170152
0.4,-0.9953702956113848,0.013192626310032648,9.829175509331993
0.45,-1.014325400625243,0.02206332993902937,9.796518240370421
0.5,-1.0485793607856062,0.020800797560630142,9.762148663506787
0.55,-1.0915623753727024,0.02023992846011282,9.727826187227999
0.6,-1.1366756284203343,0.015594387197989864,9.696815390417411
0.65,-1.187241319316503,0.012165805089937875,9.668753574208425
0.7,-1.2315770005362674,0.002524516132460454,9.647219379029329
0.75,-1.2517684310148878,-0.023817696627497085,9.636116256908693
0.8,-1.2499660051391195,-0.06075111996393812,9.638677955509255
0.85,-1.2368133507248513,-0.10469433730682666,9.661288702758872
0.9,-1.2211315056447671,-0.1482094509247943,9.702162556676294
0.95,-1.204314806813154,-0.20014674680329833,9.75184152915424
1.0,-1.1862717473932565,-0.26815713554332327,9.78733760612381
1.05,-1.1809828369316664,-0.3392948869391439,9.80263296634343
1.1,-1.211673343099414,-0.4119521027333712,9.802290249965434
1.15,-1.274578046243091,-0.5000023419238457,9.773266985569219
1.2,-1.35558563814084,-0.6753236598332831,9.687780710738517
1.25,-1.5018766992653552,-0.9879765104688987,9.468232916192699
1.3,-1.7842604820021417,-1.3327142092505324,9.050025961876976
1.35,-2.1957813958294534,-1.6846493374602263,8.4417022021562
1.4,-2.685471992663915,-1.8509418061143106,7.6356317602880335
1.45,-3.0766781052158367,-1.665240001215714,6.838773242094401
1.5,-3.350394736879275,-1.5158672352178635,6.186259358740117
1.55,-3.5234809175826034,-1.6952186727055667,5.32693893399629
1.6,-3.619776559247392,-2.209925332501543,4.030707230287549
1.65,-3.7417137447847884,-2.9669412447666446,2.4834692329401844
1.7,-3.8472260165245804,-3.986591665095811,0.8007342948956977
1.75,-4.1045795729266485,-5.324335402835554,-1.1139368527235904
1.8,-4.438081685745084,-6.375111351950114,-3.689894727579953
1.85,-4.794743242579227,-6.619606328364363,-7.394174732204827
1.9,-5.322290083444658,-6.33261285538716,-12.334555191428658
1.95,-5.968998162937833,-6.338812109088089,-18.78408845974143
2.0,-6.201916952316021,-7.359753216935069,-26.94265851690832
2.05,-5.539422607425228,-8.859960369554729,-36.28145105413255
2.1,-4.2740550321086515,-9.755966974150674,-46.05460101709533
2.15,-2.8653040488149615,-10.2537467094755,-55.154898572808726
2.2,-1.543323909722716,-11.016081929692175,-63.53188936437826
2.25,-0.49225031961701815,-12.468802289347305,-71.9796510948392
2.3,-0.4573765911029732,-13.925097739823675,-80.13990356765099
2.35,-1.1680610628039287,-14.736673310456364,-87.08727266263492
2.4,-0.3446964533652319,-15.206683480234123,-92.46372820070066
2.45,3.1392461888116787,-15.539796800515868,-96.3660281859014
2.5,7.275479143390264,-15.153559447169188,-99.04506150753753
2.55,10.907947124677214,-14.701636242694589,-101.4387922980313
2.6,13.911417697408412,-15.23329879384444,-104.56378600966062
2.65,16.051578889235227,-16.84231899801931,-108.65091608749555
2.7,16.281438813408244,-19.32509286199778,-112.83808250747725
2.75,15.358012535527873,-22.049441718979583,-116.40059693976363
2.8,16.209763550808404,-24.170094609489407,-118.96109591908831
2.85,19.444334459188372,-22.444877799138656,-120.5422278678023
2.9,21.559988667968934,-17.509888977391576,-120.53847658670433
2.95,17.62214616516537,-12.875820459944569,-118.84108219308735
3.0,12.070455608163106,-9.763893848928547,-116.83906527757082
3.05,10.488452660737869,-4.090082075937158,-115.55965358631548
3.1,12.071863984737156,-0.04505272577546073,-115.11918349084688
3.15,15.189429052651695,-0.21699525569218217,-116.38391892400112
3.2,18.994210711665975,-3.651777575088863,-118.26015437440923
3.25,23.19002121874398,-9.70897668152946,-119.19591002339568
3.3,25.748270291792007,-18.103156305922482,-119.93125510119087
3.35,23.210425592910546,-26.613442569994202,-121.02637904935729
3.4,20.106219072227518,-29.418198150296153,-123.27394808640842
3.45,22.916694358679457,-31.269756590547992,-127.19072888518672
3.5,25.444172307120024,-35.691851279390775,-131.28843037809574
3.55,31.503119268033966,-38.00371911775026,-135.3697258880444
3.6,44.891509190333416,-38.71735570081599,-139.46665032727094
3.65,54.39408370707165,-35.47898024344021,-141.0648258276213
3.7,49.518420755558886,-31.470264754984413,-139.11020289659064
3.75,44.229194028870005,-29.72418473742635,-138.91064061125047
3.8,42.37101419293653,-28.026965347340987,-140.6673708775178
3.85,43.05917184301727,-24.241673401694054,-144.57428536170747
3.9,44.45078703296412,-23.040964022173732,-150.54062690309235
3.95,49.06685055686446,-27.199564864759544,-157.97391419241166
4.0,62.32489874486464,-40.05599697341173,-166.24244905160342
4.05,103.75187881414548,-94.82515578300504,-174.73660997370902
4.1,-145.4325196808366,153.32782517686547,178.34086539865652
4.15,-89.669688709188,115.15522006648995,174.6611735055995
4.2,-71.6386796984305,97.02917116607838,173.6864339400158
4.25,-74.48799542953168,48.699754184029885,173.5318653209419
4.3,-79.47325510665043,-20.729680140150833,172.63208625181005
4.35,-71.65226840876443,-28.227423901509265,170.26000569902578
4.4,-60.805169284843075,-2.5879718544603096,165.9594993214364
4.45,-50.423527164525616,16.218303987248188,161.23810548622276
4.5,-39.63413548344257,16.377030958895656,157.79419786210255
4.55,-29.831238908986034,11.304303338624075,155.97832854400684
4.6,-16.674348993106815,15.681367306113096,156.2269796670383
4.65,-4.425043818184815,31.828152316215334,158.67921529593121
4.7,0.925478799606436,41.16270069085506,161.33260208035668
4.75,-14.051679515693518,34.99036519795243,162.0359224559301
4.8,-27.326554258404077,35.515591520398296,163.12156822082224
4.85,-28.218281513845945,20.7813075931405,163.95437962342405
4.9,-21.91087955107778,-6.260092164546332,165.51920827547312
4.95,-19.355750604495245,-14.777491902785304,164.9878243005242
5.0,-21.205479166463437,19.34023644730046,163.3711196932042
5.05,-15.548372899857428,55.18711585324688,163.91602527899704
5.1,-23.742174622354767,70.65030825693331,167.21833552807576
5.15,-44.65362809119935,93.20365996722933,172.07677352458504
5.2,-120.2541572831732,129.5214708542542,177.41698068801
5.25,108.80476233411967,-103.0817955148295,-176.35017003353136
5.3,56.262022133935815,-56.45647575056836,-169.94005769539217
5.35,46.42919407472106,-51.75097311642098,-164.0184949215895
5.4,40.12392459349382,-62.149992180175694,-162.84465396187804
5.45,35.96453931501123,-74.40812630367269,-164.78389356915605
5.5,45.90735904582228,-72.37317225551435,-164.50264581339454
5.55,66.9434145667666,-58.880077959651196,-164.15674032802525
5.6,68.89385374355493,-52.122244945772714,-160.49202533771594
5.65,45.003486437294974,-47.11549076585027,-154.5036050272418
5.7,29.72332040714516,-27.929500809221363,-150.69462563969918
5.75,26.302466143880196,-8.593611698978842,-150.20312836728698
5.8,20.81321876657064,-5.504023685884655,-149.01535169951853
5.85,19.98978208308876,-6.332048967979616,-148.83202827794966
5.9,26.728587599720644,-8.62553057548813,-150.26109253143136
5.95,39.69101184396997,-13.491235851875338,-151.87380194459368
6.0,46.61216839619185,-28.143165295578452,-151.68714354908258
6.05,40.67017660555476,-47.52699236405023,-151.33264950855676
6.1,31.766300492505465,-55.05109557126938,-154.99842982630062
6.15,25.20279979356983,-74.0878279462205,-158.96617315927165
6.2,42.36535743705194,-99.783053869728,-163.11850895214548
6.25,53.02118026508133,-101.96686823483401,-165.52691280705125
6.3,32.111084505407675,-113.36792796905281,-168.63184465659282
6.35,28.573569506992797,-141.35061858902492,-174.6353201686896
6.4,26.169244593508743,147.86827742332423,176.84886228599873
6.45,1.0484770644159778,77.7488704025942,165.49837934605847
6.5,-14.427892190102437,78.79488376769919,154.30782101580135
6.55,-15.986558946849476,49.986978238032435,143.32705057802855
6.6,-17.0953631992246,31.30226666518304,136.53226055839067
6.65,-12.24999827281442,21.54971883151449,129.74333347011464
6.7,-0.5779775297809614,10.76147393618121,123.98323305029702
6.75,0.7751713377088179,22.020156678027746,123.54198169825786
6.8,-0.8102377163751882,29.29528049509327,124.95201753132156
6.85,-3.3315326573027653,32.79678924376373,126.83971751221273
6.9,-6.205663408067176,32.972695843640814,128.29897309143072
6.95,-9.061580707439996,34.81383192074853,129.57079435004255
7.0,-15.293166227077934,39.6982887864066,130.37018449889715
7.05,-22.259018059510275,39.60027867484032,127.46790895856931
7.1,-28.490387731395426,39.300454873557854,122.5613461964436
7.15,-31.81612157780125,43.63533335316066,120.46430444009832
7.2,-34.79908344443995,48.96158840195094,124.01819464029953
7.25,-41.233658325779274,45.991639023695186,128.31909822130999
7.3,-52.876130095895086,49.72181374392768,133.526243909879
7.35,-62.07276835554656,42.134853992101604,137.52988158110736
7.4,-74.24134984795815,43.49597583199176,141.5377379385919
7.45,-88.25316208991981,68.0366590933791,148.96845589305954
7.5,-114.36720236371274,112.08850242819022,161.9262866425725
7.55,-162.86013826671814,162.798049067407,176.09791191684351
7.6,141.02501130239423,-130.34622233942966,-170.25291210549022
7.65,119.9665637343393,-74.65323528696914,-162.23752216625596
7.7,91.39598397124689,-67.17037080785282,-153.22732402097208
7.75,77.29599228384548,-47.83679174580636,-149.37723093359165
7.8,57.46564036864982,-19.282127408409597,-149.1713545142228
7.85,49.1469085039795,-28.85754220831097,-148.4298496451976
7.9,51.92540035635773,-32.908169030440504,-147.49635647552256
7.95,42.51618665013284,-36.01771838142831,-144.5526260421926
8.0,28.69582337202903,-36.13083695423536,-139.49504153649605
8.05,24.072949392515227,-29.348245628735803,-133.4489758048121
8.1,24.466555994941878,-23.701482259790037,-127.44680051114247
8.15,25.870772589349947,-20.84876552371781,-122.4485564963985
8.2,24.56435223762922,-19.21875114822113,-118.05212328015314
8.25,21.965915090311928,-19.517969052338508,-114.09518965503946
8.3,21.892027928818443,-17.705713849763235,-110.80028519683496
8.35,26.590797232336694,-13.998457729707818,-107.88262698693978
8.4,30.20913989928251,-14.801510911349258,-106.0132748390419
8.45,21.062527751659466,-14.095418999869462,-104.16042758556323
8.5,18.06446241462098,-9.934536697469385,-103.24801789546227
8.55,17.980476579456912,-6.663503434243466,-103.44682443002225
8.6,9.47789410915173,-4.443409955177757,-102.878064708568
8.65,-0.25320301850548893,-4.805857819106512,-101.71310794046825
8.7,-6.893370239872185,-9.261051045577107,-100.68526052196742
8.75,-4.470557885521304,-11.218720178764826,-99.87391248301151
8.8,-0.17761327540593155,-11.90450129719878,-99.74778028201325
8.85,6.373904313544348,-8.429801642443431,-100.41157623640787
8.9,8.12925085689075,-7.278578151783944,-101.06264117527793
8.95,7.683924051480718,-9.046544303583614,-100.667984295201
9.0,12.017502884806222,-4.56185702729979,-97.40792331064901
9.05,13.218544411327521,-0.3760832068129714,-92.91392662043091
9.1,12.210280927870135,0.6296579952212726,-86.68813499085091
9.15,11.059405511576026,-1.3426644528615173,-80.26914878073805
9.2,10.141418831373903,-4.575237690825999,-75.2797348392599
9.25,12.332903286501963,-3.9114621768884295,-70.71593760412621
9.3,17.69004072471106,-2.2477360855806223,-68.4752534260587
9.35,14.988352486118083,-5.5773750257249555,-66.08983805102295
9.4,11.048217507981654,-6.983498044920127,-64.83802719376344
9.45,8.928833455169023,-7.022909873753568,-62.975077627856685
9.5,3.6694867379517278,-6.761825026007448,-60.19800119453656
9.55,0.6270298107896765,-6.2361028540759085,-54.75009788971431
9.6,7.695099928297557,-4.3225293743444535,-50.77622208504157
9.65,7.883968727970131,-2.188256229459344,-48.36727509725623
9.7,1.8986702720733821,1.1646709201199743,-47.459240161302645
9.75,1.169274977330935,2.3874891237084626,-46.05187730893077
9.8,2.39029219462126,2.7134918495743476,-44.822030747602255
9.85,-0.9771195335410824,3.4324494096533833,-42.44296540556642
9.9,-4.0460842712190646,2.0194878934928435,-39.61433380600487
9.95,-1.2646245028833158,-0.5523416671123855,-37.27387597055873
10.0,-0.1861133704928626,-1.403452678992852,-35.68365661690544
10.05,-2.428613413593429,-0.3172508788763573,-33.48887849454654
10.1,-3.3646980356760396,-0.46849859874639244,-29.19530733293163
10.15,-1.0891403668250002,-1.5473674458164195,-23.108304043917627
10.2,1.9113066995480956,-2.7445627603637393,-16.84768691400203
10.25,2.8051763357395982,-3.4366285846569338,-10.092187770177125
10.3,5.231940215670028,-2.30040958673464,-4.580098020687435
10.35,3.9079525005485722,-0.1788860755435042,-2.594257756748492
10.4,2.6111825560558084,2.880543968642314,-0.7970809127380156
10.45,4.264939843913428,2.6264346562440393,2.056113718540271
10.5,5.299642447361012,1.6349858309785845,4.750320631654157
10.55,4.516457062093753,3.492697701362909,6.33177602433099
10.6,2.547751475551521,6.684841130699539,7.570215481808167
10.65,2.336303714399463,7.792741222083243,8.744545247870986
10.7,2.4557601096581902,7.803852749535045,9.265756001518087
10.75,1.3250332610746178,8.745931959321853,9.07543224270673
10.8,0.33634761556765713,10.12977125541632,8.690899102437523
10.85,0.13727920147205516,10.756253379302636,8.508689057201662
10.9,-0.139345989107561,11.10180110924217,8.171188824474626
10.95,-0.4067830816553345,11.079183974084438,7.762269514814177
11.0,-0.1404857707096467,10.183205709229426,7.514811517189032
11.05,0.5069097587959678,8.851481381279381,7.32464509659077
11.1,0.5438371783979028,8.197173535570688,6.8200329683862
11.15,0.4909939337491142,7.512972124055178,6.103979617954054
11.2,0.6415231940872455,6.556867410609353,5.3318101819555395
11.25,0.5727670197547157,5.577474448380315,4.69288466423667
11.3,0.19374364905575253,4.569028699411803,4.352371487476906
11.35,-0.009314963469261204,3.810314189988049,4.340334918039361
11.4,-0.16435977087085263,2.86605188733422,4.6963922692047575
11.45,-0.40538087418458063,2.2529411248592615,4.984982126643779
11.5,-0.4736629639050264,2.1140038652434,5.393449312089235
11.55,-0.3270289568932776,1.8723511259865226,5.852757661140496
11.6,-0.2478749412468064,1.3103317271143706,6.153763813609167
11.65,-0.03374176297775642,0.4454354295445395,6.338285612765311
11.7,0.4014799268220701,-0.6778946521442265,6.318053948187023
11.75,1.0403878050503863,-1.77794161879352,6.10352072499394
11.8,1.9075203989732168,-2.3929705641365002,5.982376862077889
11.85,4.2006674242384605,-3.2267141420591425,7.168818512151137
11.9,7.328239131277038,-4.9413834135412085,10.096825516475704
11.95,9.733775223372524,-7.027069589787937,12.530142130198966
12.0,10.100221977048118,-8.089620666259773,14.75379820957295
12.05,9.053509732200745,-9.701861605279433,16.08512835980872
12.1,8.32522708189522,-12.020222327523435,16.403109941617892
12.15,8.786776798270266,-14.07575672955401,16.677698783046715
12.2,8.175272001543403,-14.816058037552372,16.2751139873847
12.25,6.820118862971039,-15.097182299415348,15.949051336630275
12.3,5.410330045639647,-16.171405622198233,16.736120332243914
12.35,4.771372746552397,-17.00524323499531,18.955768467544907
12.4,5.548785222756701,-17.87762302981193,21.798278045119165
12.45,6.75901341523786,-18.77338621914988,24.789834717033845
12.5,7.5803977172600545,-20.54944271556113,26.541261462261637
12.55,7.746538971199317,-21.614133394355644,27.380184644722032
12.6,8.004701569358822,-20.996064506153175,27.959133227020917
12.65,9.312980954163265,-21.021565927159905,28.19501004298157
12.7,10.295838586053046,-21.606983953042295,28.652400095763667
12.75,10.287127523123276,-21.59710723162584,28.844474220814856
12.8,9.32299513532784,-21.182514333415785,28.88449710240027
12.85,7.887459485909039,-21.309856359579413,29.009218060738146
12.9,7.158061458953759,-21.920906317384947,29.056106473852314
12.95,7.124071423590249,-23.008795078725438,29.3183498676368
13.0,7.042792132444979,-24.364453131629343,30.09974778321433
13.05,8.52913206594922,-25.810464813962664,30.215675067669622
13.1,11.389839328074913,-27.911478616105104,30.2754445499308
13.15,14.440549433289124,-30.28942703729613,30.434560414511623
13.2,16.96691991306234,-32.45191028272124,30.25951075625686
13.25,20.851108392700798,-35.03627416241538,29.466171410653015
13.3,24.013026630401907,-37.21425288616916,28.98953575798958
13.35,26.38944373472105,-38.758009593415856,28.5652357158398
13.4,29.7937927293662,-40.041725958225605,27.70523001419466
13.45,32.43382653800838,-40.702942874637,26.88745818365268
13.5,32.63179166033175,-40.297607326007686,26.359679257387864
13.55,32.60247091356957,-39.69908557503346,25.579550565812273
13.6,32.23420775181768,-38.75801372360664,24.767184110262153
13.65,30.3186623730622,-37.28017548649821,24.311436063604255
13.7,27.825528198487117,-35.72332879990244,24.09771010772914
13.75,25.047728075390953,-33.78210584141856,23.993915457417188
13.8,20.423479428733543,-31.037104080539535,24.244599695840026
13.85,15.41092868873414,-27.973207098674703,24.67259832111269
13.9,11.129652809725803,-25.049886493113018,25.232702429852086
13.95,6.239526338124952,-22.0077392913105,25.981296545917502
14.0,-0.42090520816552024,-18.240130310209757,26.73230221520651
14.05,-6.371993319434393,-13.863673057726986,27.317445456946878
14.1,-10.297644513439824,-9.179838685428445,27.906483711989708
14.15,-12.554230231158407,-4.613725493019473,28.9459357506782
14.2,-14.09291082160499,-0.9224220075217092,31.093457184316424
14.25,-15.71964797594553,1.8639176571558715,33.5454823170433
14.3,-16.859252826509184,4.227622993042237,35.46871300062991
14.35,-16.790962791159824,6.450012523688755,37.15189425493008
14.4,-14.93020367659563,8.176490137047185,38.243902040208965
14.45,-12.373254417720418,9.441857813983148,39.2778933771065
14.5,-10.580327494842333,9.924045561832258,40.96755913953196
14.55,-9.003934321087131,9.48693005509559,43.02645302878822
14.6,-7.083959745857585,9.569715303380608,45.298534162974384
14.65,-5.205894484078954,10.018188220278308,47.94008072539852
14.7,-3.586655956678853,10.109130286401866,50.8660961088499
14.75,-2.4060650647779194,10.19990746025064,53.76144717382379
14.8,-2.132744167613424,10.655933489693044,56.32578768602004
14.85,-2.4411576988774835,10.289150096040997,58.032682790342406
14.9,-2.9748071181847537,9.025519703071915,58.39887732856787
14.95,-3.079832165698202,7.730135988947551,57.5473244241272
15.0,-2.691549918789897,7.263616473273078,55.88130187055927
15.05,-2.040797752870997,7.72700162356015,53.79886534729032
15.1,-1.3129239683099245,8.690925382799191,51.65949745652287
15.15,-1.25944519554706,9.961638785029374,50.30896664850777
15.2,-2.1789155618427003,10.996385947493993,49.48001542380696
15.25,-3.2728944959058923,11.7325721179608,48.7911237388978
15.3,-4.049982436105383,12.075558452075246,48.32875066314415
15.35,-4.509819534360435,12.01635017448858,48.19229961514766
15.4,-5.208143760752137,11.905745960155851,48.298935559987854
15.45,-5.967645448441134,11.5037837783112,48.49556779168222
15.5,-6.364008416828643,10.470719999177028,48.74501561579771
15.55,-6.2509346711290235,8.800925929131141,48.916768756225125
15.6,-5.5981303440389105,6.628660345696584,48.641825354864594
15.65,-4.869061654468425,4.2827666654806595,47.85909818880351
15.7,-4.462753819796038,2.060298365880459,46.35511262701854
15.75,-4.5024319774899695,0.06334629743295592,44.12936951126612
