Time [s],Flexion(-)/extension(+),Abduction(+)/adduction(-),Internal(-)/external(+) rotation
0.0,-3.0549029049062773,-1.3244984088846894,0.8025493834438724
0.05,-3.0614305470873924,-1.3096541683758127,0.7341266585353281
0.1,-3.058378341219671,-1.2971770363484187,0.7404296616827702
0.15,-3.0406520458192565,-1.2848023244866014,0.7473698699368093
0.2,-3.0047893300086823,-1.2614515852385435,0.7575446318351919
0.25,-2.99845128826543,-1.2523637795617006,0.7742274064463134
0.3,-2.966138136674715,-1.2256229593335797,0.7920251567282596
0.35,-2.9469078126208577,-1.22958512232638,0.860440457698105
0.4,-2.9514459815459526,-1.2535831459848918,0.8725306824403429
0.45,-2.9447887131562553,-1.2578158813381461,0.8564175772722354
0.5,-2.945992316595164,-1.2505088671202935,0.8392682383702096
0.55,-2.943486660887354,-1.2651290031914495,0.8481244361928008
0.6,-2.9241203186971956,-1.2510601071662828,0.8565653584373973
0.65,-2.8806467392487805,-1.2101570493098837,0.8679768285897086
0.7,-2.889697139145923,-1.1798072889665765,0.8374581608912289
0.75,-2.9161694511670326,-0.9045291469551816,0.5482762750394392
0.8,-2.899240804749564,-0.8264528334105251,0.4703469380399511
0.85,-2.9041097811827097,-0.7775108446160065,0.35736394807816063
0.9,-2.9056439374716936,-0.6906713673431181,0.2184218004196976
0.95,-2.877718685332319,-0.5872419035243339,0.10560194929346428
1.0,-2.86111344164794,-0.5348640960761474,0.1377282324110437
1.05,-2.8692013970226604,-0.5343922953300416,0.2538215064244736
1.1,-2.869502693465254,-0.5067304264286218,0.33856253789968893
1.15,-2.956842867627112,-0.5264535542012198,0.46326809754092724
1.2,-3.242198759864112,-0.6602349401023682,0.6531956441303017
1.25,-3.558423858899868,-0.5881184871360399,0.9029641268892019
1.3,-4.024500298186967,0.20662629159901158,1.6386139119323015
1.35,-4.450320534497649,1.4172965826608201,2.9895844539105068
1.4,-5.085468186429325,3.055562215359066,5.077030909887668
1.45,-5.419028906533247,4.986294213059778,7.204871729594869
1.5,-4.554748179957608,6.474844356714094,9.847816042547299
1.55,-3.8459609352980832,6.815085107932557,14.309097575911364
1.6,-3.999853349246137,6.8248504820349645,19.268969489726405
1.65,-4.094180969580216,6.447073836288136,23.817683214113462
1.7,-3.3732918831185628,5.202921747094086,26.22437585178905
1.75,-2.6109569392101903,3.0741867220474592,24.01833278723991
1.8,-1.4390423347157861,0.5434097683820586,19.935404219034247
1.85,-2.171040717512916,-2.198238419131173,17.731596839736525
1.9,-4.386100173898655,-4.466410674310319,17.554219070270626
1.95,-7.271512846721464,-6.120256533523102,17.307770584983068
2.0,-11.224197625646239,-5.33308050705733,14.364237812380194
2.05,-14.717646442223673,-0.6811001524217425,8.171821237493766
2.1,-16.185499147458412,6.217853311756832,-0.4068836957559285
2.15,-16.21756461505216,12.342367546369351,-7.715774428307815
2.2,-19.08536485918629,17.20961699703569,-5.53791049714735
2.25,-26.507294344914044,19.57296472991179,6.564684584771259
2.3,-31.290877071667293,21.082872328233364,15.412277936701566
2.35,-29.266371799913536,23.472746836028154,12.318779480079849
2.4,-26.26382686482073,24.666103989684373,3.5130122223068834
2.45,-24.99535698487843,25.522508344144676,-2.622723046496571
2.5,-26.307488946908272,23.62421465130005,-0.978972414245626
2.55,-29.494643050093746,17.738236304596253,6.918315286748197
2.6,-30.425943657295726,10.745351854539187,12.807716726578132
2.65,-27.560478198170628,4.409708959391885,11.110381976432986
2.7,-25.910329279740978,-1.2969159493241222,5.650575549849227
2.75,-28.122672421545715,-6.999525453859476,0.8338783624492377
2.8,-32.28298159136204,-12.66514098083407,-6.2084530117601995
2.85,-35.02087192129227,-10.26654126431487,-18.125824625713303
2.9,-43.6503336283064,-4.3634298148541815,-31.14265646782606
2.95,-47.57265643746227,-2.535278045006364,-39.462970894471965
3.0,-49.76434849387684,1.2707091332587142,-38.87293669156259
3.05,-36.948755187345924,6.914664242693456,-42.97021648686271
3.1,-28.166566162243647,12.818421301730485,-34.016551511577994
3.15,-28.45545335490311,12.600840392775174,-14.205479717574267
3.2,-32.36951785951969,7.367287445019393,5.246273733649634
3.25,-36.74469297086147,0.5440453273062708,18.81015038301754
3.3,-37.065027719869846,-0.74859317324185,18.91439221149114
3.35,-38.0362727108359,-0.4800732580321074,17.733676990523936
3.4,-28.578197126295564,0.3486274984170543,15.732739890921913
3.45,-23.725187591509474,1.6303599620345135,14.872490086808936
3.5,-16.06624478057983,1.6819011169344487,17.477230898803857
3.55,-9.96168744485985,0.5157402395843033,21.434589287282908
3.6,-7.378388461787711,-5.101068210286566,24.531821569726493
3.65,-8.797089810598065,-12.674426182325002,24.90516834227406
3.7,-17.139046837797032,-7.388162357746957,17.50058205355378
3.75,-20.010428962111163,0.4724506534923814,10.3898956534642
3.8,-20.449840581772833,3.7319186406702025,10.81728471192069
3.85,-17.112958516403268,5.3655514854064545,14.207637278594536
3.9,-14.723007095224965,10.186397847580478,13.766698117369604
3.95,-13.53662462907563,14.852025223812158,10.273140223688237
4.0,-10.79369601806503,18.163283952234753,7.18440339212783
4.05,-12.049709931468005,16.26539379847879,6.840634953472439
4.1,-20.681620380781528,10.043664710576026,9.260124394887118
4.15,-30.77217956926863,-0.8690841278879704,17.229506575716876
4.2,-36.27342630521237,-5.550673243788245,14.996358785875325
4.25,-38.293190579149,-10.030485529773912,-1.8253186146704086
4.3,-35.1982210486932,-5.962492591531145,-24.45434095675581
4.35,-30.325089825292444,-1.4540517986659687,-27.248021457569898
4.4,-31.6020244184701,-2.3263289749372644,-21.143942192116683
4.45,-31.953300078733,-6.98982385422427,-13.480621290105441
4.5,-36.25159330473864,-6.312925039615947,-16.173254516508226
4.55,-33.65703162119248,-3.963075185851828,-16.329364659924142
4.6,-24.95726116084542,-2.681228160253201,-7.261073354056418
4.65,-24.418540497816092,-2.3218148040104056,0.666049476171235
4.7,-34.53749348275721,-10.169196422240075,11.327634307688228
4.75,-34.48619244500352,-13.932859899349847,11.033982446475413
4.8,-30.536896331905357,-12.519084536559115,6.444611761171477
4.85,-28.926878952483907,-9.673575984414018,0.804591708395115
4.9,-33.02637518732243,-5.827530092379853,-1.0685783794058885
4.95,-44.59695928648088,-7.4978754239883125,2.281846357535601
5.0,-54.78189024438785,-15.634539015277916,9.738836952908121
5.05,-59.388882848075504,-19.43281656921951,13.751441412564683
5.1,-60.554034223897965,-14.884991397390499,6.243209184794611
5.15,-53.88951322732326,-11.870999738900602,-3.7666217536519184
5.2,-48.122379728445196,-13.971525153479547,-7.069373114793897
5.25,-41.462865559456326,-15.931678722354102,-5.4454526874802145
5.3,-39.39102735483394,-11.955900753353914,0.15034476556701915
5.35,-31.695905248599455,-7.6687048417149,6.68503752108175
5.4,-18.69460745654245,-4.0259445064135,11.821719380260731
5.45,-8.223354323384342,-2.3615357105195187,14.004454123757174
5.5,-0.935035136394879,4.17798768176215,31.98200409973516
5.55,-0.00016249535377838557,11.222529883294662,45.036822576400006
5.6,-6.16133758622435,12.3174740161591,41.260555178127795
5.65,-15.864888775137915,23.900875044794386,34.82213100174662
5.7,-11.236658014886387,35.610456924781964,30.830643607657798
5.75,-9.284665500121042,41.63669133252704,34.7007722076062
5.8,3.866699594101597,41.8314475830154,30.135688443512873
5.85,4.7759261428107305,29.93740509130772,20.06394878426653
5.9,3.8300268392580468,20.06990834559248,17.39448362033539
5.95,-2.0356568747108,9.212761002612313,24.143745764862047
6.0,-8.321940258413864,0.5918083567808023,19.65394623348219
6.05,-11.503966276472266,-4.63576447306188,10.458843578979334
6.1,-5.468952252726937,-5.397108139942187,3.3686204106224165
6.15,-13.237390031128294,-8.074550404300878,10.008207534058757
6.2,-21.513843069503483,-16.667347008770214,14.003367720840759
6.25,-40.44453480917058,-16.803908747994626,2.40464448377286
6.3,-59.80497355609991,-11.23130293047924,-5.983950172211809
6.35,-61.968066699931704,-9.71007721098784,-4.942471183721607
6.4,-57.166023532611774,-7.113328645918115,-4.638980219159905
6.45,-70.4040518502412,-1.825974087165804,0.9775431117229625
6.5,-88.69967112185164,4.683000854884322,20.733469465019528
6.55,-101.69551352409061,19.642255627540635,40.56925343267832
6.6,-107.26421010616747,43.05782513567653,56.990773800378115
6.65,-106.30314131638072,51.661949818790376,65.68928406696924
6.7,-91.81231728809142,48.599820052956446,60.14318345648063
6.75,-83.64664299016692,37.61086394484629,58.61643580700843
6.8,-73.76057437820168,25.94376438858193,56.85469747348846
6.85,-56.65846568243352,19.38523461647179,49.56967043910242
6.9,-38.88091099143685,14.45534318738165,41.144594024757104
6.95,-23.042244617675415,9.312115872120348,30.082598242135855
7.0,-16.7083222454928,5.359089420918706,16.35878703857968
7.05,-17.76912001234131,6.399492729434636,4.3477425253065105
7.1,-15.234833157619326,8.2278708484589,1.9659216493530967
7.15,-10.535939844065293,2.6149554011906075,1.1336153042574193
7.2,-23.71909039946046,2.201573260211967,-12.148886455014624
7.25,-33.33188047166105,10.82196157293105,-18.015750581931375
7.3,-45.18617022808974,13.525292619684041,-14.066667368008018
7.35,-52.55557073448261,16.91593295153736,-5.203904665018767
7.4,-53.656657548207264,21.44497214599125,0.9714656924831999
7.45,-50.474638436394585,21.249054703668175,-5.727867112830776
7.5,-36.56324294493285,16.790258558061407,-17.603881019464666
7.55,-24.408488913708137,7.540663838739747,-19.221330105907164
7.6,-25.19050300607049,1.3367225514831051,-18.182413312368062
7.65,-29.391759664717934,-1.0380951037351858,-17.850680149161793
7.7,-31.027447093865774,-6.71865502420293,-8.871771302105163
7.75,-22.321333495408112,3.253554773952729,-2.579246300537084
7.8,-26.203269535311843,13.73207330897206,7.058373251755879
7.85,-20.482969435533565,15.176598329494832,22.612151552841762
7.9,-16.332681245024997,18.309250933056145,34.17343558177305
7.95,-22.87048785390764,23.21694219544267,38.697841446337726
8.0,-37.127165173415854,28.113474241476606,37.68953132987552
8.05,-49.13981597592833,30.764424950187266,35.125375931260635
8.1,-56.42849479944718,31.525818256222383,30.892316488814878
8.15,-58.95622946966398,31.33544301490537,29.325117986455382
8.2,-54.879417395373714,27.95707352500564,28.174389908044827
8.25,-44.22005340787471,17.77474924749133,25.106326340695464
8.3,-35.387974926973456,4.565007116855799,23.265348323054447
8.35,-29.72628956757033,-11.75034169259038,25.776327874830436
8.4,-28.36893477033466,-20.85481613913643,18.859785949128636
8.45,-19.230208575687815,-15.73570473181322,12.872466960464864
8.5,-16.914933740329687,-9.138410858265967,5.301045545028053
8.55,-12.958815530408963,-1.4818419315593478,-4.250339025932477
8.6,-6.348345609614741,6.002082189248372,-7.645721424079587
8.65,-5.064366079056225,7.554570519550112,-0.3451297117011107
8.7,-7.525987161541738,4.571124738742863,9.600441144698657
8.75,-15.937311654341705,-0.2331335674244678,15.950921585266185
8.8,-25.99933654538711,-2.965314250694097,19.643191418551847
8.85,-25.592851637938637,-1.3572668230041873,24.135859808109313
8.9,-20.5759382193405,-2.2849087527190037,30.028107815065308
8.95,-15.521548144802814,0.33475645592824455,23.6123795154436
9.0,-7.436222349295922,2.571926671253498,15.925787820330688
9.05,-4.395964578021941,2.288066194634993,9.28142723149379
9.1,-3.389028296799898,0.8722199462195293,7.726867345806608
9.15,-13.831596942664262,0.6140110624384977,8.904189887740035
9.2,-26.09969639875716,2.5823942023770536,6.8442150648479565
9.25,-32.795186042680776,3.955293771579008,8.868398900726737
9.3,-25.84126444540766,5.14476094156585,12.916948764099805
9.35,-25.312477526493705,6.506252084499773,16.044403595598038
9.4,-21.16850079329393,1.396888368944635,17.558539186390053
9.45,-15.481718096049097,-3.852292233461664,15.160214097122672
9.5,-19.787766077447117,-5.759596191068551,16.03925706516766
9.55,-22.419387127716405,-6.919582283151793,25.98391164947415
9.6,-22.684203552296967,0.6019522973353996,21.814298387724545
9.65,-10.502824220763967,6.826067316755713,16.395379178817482
9.7,-7.894196782915007,10.321886732986545,18.779935169376376
9.75,-4.877074538730339,12.895582003517816,22.331863238031506
9.8,-3.2971782649699946,14.382529338685357,22.34309147406222
9.85,-7.907555174809985,17.154923724529827,19.541658900226416
9.9,-16.76232374225687,17.383474010070504,21.070687636176082
9.95,-21.541198452399804,15.754623355859774,22.245971998036147
10.0,-13.248632962504793,13.41995766115579,19.250048616248325
10.05,-12.83496714306678,13.045896802751617,17.34204518589323
10.1,-13.764747713250745,9.236219320579835,19.137295034354107
10.15,-13.049989467605494,4.906675402252465,19.726242008801243
10.2,-11.838149817548016,3.747946823623765,22.95958863505136
10.25,-13.535467444323716,4.191483741246032,23.84106100831208
10.3,-12.467434098134879,7.9950920777999315,20.958813058445866
10.35,-9.007361483501356,8.349177163153747,23.558411800291157
10.4,-8.970114959576247,8.897386041519402,29.720921580380022
10.45,-9.700223727058109,8.1399616960843,32.1335020355446
10.5,-10.086235783452269,6.52418884742676,31.436880189427242
10.55,-12.844528014031182,7.651703977251664,27.926495762190658
10.6,-16.816354183789397,9.76200612371292,25.774469684580325
10.65,-19.436330898065087,10.90206551400414,24.865541939728228
10.7,-20.880321394195477,10.534815888695636,24.386875929786928
10.75,-22.134946910363585,9.786377639550444,23.8801172124239
10.8,-25.648303280932534,10.013243261355932,22.398995032533296
10.85,-29.697987185650984,10.268358705875915,19.04351096943192
10.9,-32.783153270309924,9.10529556683149,14.555706571110315
10.95,-33.6779614494611,7.775035342905641,11.000697642688934
11.0,-34.90233228960226,6.91740859747225,9.87067430976481
11.05,-32.778175507397314,6.557699480165561,9.720346015937567
11.1,-28.70553762358454,6.611181597697638,10.452610270182962
11.15,-25.41176484412396,6.411475393175063,12.853090007279489
11.2,-22.081463116037778,6.68050873320981,16.03212214528398
11.25,-18.715946760213285,7.552005102117943,18.428010397318996
11.3,-16.66215239407429,8.787016211623493,19.99769089370979
11.35,-14.219642722519213,9.155142475646079,21.83452386741835
11.4,-12.128864540791405,8.712069907370587,23.707504084042657
11.45,-11.918197232369767,8.600533629207844,24.433975819944635
11.5,-11.774087695760782,8.499204341986278,24.52548667596386
11.55,-11.452840620928832,7.5995417196139945,24.833136137375515
11.6,-10.885764948708408,6.821867486604873,25.471576672490794
11.65,-10.67346118326404,6.251499777822672,25.77517978227711
11.7,-10.485015845632077,5.690255927419056,25.801057776424965
11.75,-10.410267425582141,5.635819817160685,24.976183457895036
11.8,-10.351443206228954,6.379994709926381,22.633195133240246
11.85,-9.814563354225728,7.80389628162649,17.76907323451009
11.9,-11.814648451695795,8.499402473551854,11.030445759975612
11.95,-15.835484033009386,8.483235922661857,6.455122925672807
12.0,-16.69282936912339,8.223506633661883,7.18505700119584
12.05,-16.663208670162646,7.677397561558068,9.522266726461922
12.1,-16.73525234203919,7.566826463165458,11.065481452191962
12.15,-15.65425165661694,7.520817708472253,12.374174048333016
12.2,-15.15366086535025,7.454143341732851,13.128956590457767
12.25,-15.245741756562111,7.831019587767045,13.409952339261295
12.3,-15.131180754794508,7.063155978656122,13.001658629169148
12.35,-15.40055752604567,6.893368697954575,11.832357100908482
12.4,-15.262457394196602,7.602566287381484,11.27225002654826
12.45,-15.38480603276654,8.397203552873137,10.889001170146434
12.5,-16.757920717855125,8.60193846300477,10.143926025618716
12.55,-19.000835065362786,8.162690154070063,9.293534723773794
12.6,-21.22579758649633,7.00806581750987,8.833645242045236
12.65,-21.838630829667462,5.690249982397246,8.845578027656547
12.7,-22.718983648915657,3.8385682752653087,8.250500128313394
12.75,-24.413840068997725,1.8732470181158858,5.7091078257697685
12.8,-28.274024313911934,0.28141751954543964,2.1931129730841934
12.85,-34.60271510618389,-0.4383869988607597,-1.9512013693173857
12.9,-40.91255103625866,-0.620221733376518,-5.292623135357931
12.95,-47.45354432698125,-2.4507638689994904,-9.226159198667357
13.0,-54.63926017386368,-4.266890933087019,-13.661869669709036
13.05,-62.24208392378292,-4.560956930538196,-19.959230469810755
13.1,-71.07522885169104,-3.949316002352342,-27.487664104619462
13.15,-78.65701598019066,-5.553717168884391,-33.432106858734855
13.2,-86.88402439622811,-6.356316572527532,-37.22092720221911
13.25,-92.17818349832909,-9.031234881508214,-40.68171486055186
13.3,-97.17284432860968,-10.928299637894824,-46.378800502156906
13.35,-101.51002135354113,-11.372062708476536,-52.208897183578216
13.4,-101.76876770039742,-12.298444699927149,-54.46600962442131
13.45,-100.01703231934378,-12.939553166085647,-54.107634693595635
13.5,-97.90253903470169,-13.592102317693046,-51.30513401730925
13.55,-95.18487891111124,-15.79289416636735,-46.99165033750597
13.6,-92.24241036683004,-17.838406168284337,-42.771236768389706
13.65,-89.74365979899943,-18.046842453025487,-38.36314504532401
13.7,-86.36328251403175,-17.42533816134816,-33.496511461452556
13.75,-82.61280118126216,-16.82413695651155,-28.31726393959937
13.8,-80.6223890877109,-16.3265466660284,-24.468874320315837
13.85,-78.965329572079,-16.154472912123037,-21.62925943274919
13.9,-75.88328385232818,-16.39597035858824,-17.89521920922279
13.95,-72.51316744629118,-15.0602690400489,-13.703362511197168
14.0,-69.7491205007671,-12.531024631518326,-11.339481817883708
14.05,-65.72729438372406,-9.683672796684677,-10.459416730170993
14.1,-59.98447480842719,-7.51742050549434,-9.495087773218446
14.15,-53.69582690077456,-6.308036871749655,-6.5673218232391335
14.2,-49.208614298371074,-5.927096604674078,-1.7965402164716735
14.25,-45.74327937297586,-5.669338152171837,4.334439737487817
14.3,-41.01421522729796,-4.741723302758196,9.753020855435407
14.35,-35.796195343775764,-3.738808080167256,13.475068045344615
14.4,-29.070071561308552,-3.035737037551283,14.790149869396146
14.45,-26.042009131978745,-1.4740259660648392,14.231244562121416
14.5,-24.68724389923517,1.44312212384039,13.63964769183349
14.55,-21.67341660486041,4.279858056271139,14.068009141912903
14.6,-18.434264046053375,5.839998876589293,15.622506041747311
14.65,-15.25495901870967,5.650302906360365,17.781918478024217
14.7,-12.254160082304494,5.519227380764667,18.94420873057032
14.75,-11.267635846268194,5.722387520891664,18.24344647767744
14.8,-10.972603412539954,6.271059137434497,17.048181782333845
14.85,-9.6432807175156,7.443695445823591,16.228673974276578
14.9,-9.774817202884769,7.921277133096036,15.297791775994774
14.95,-8.790060368755702,8.226376110598428,14.330965405496773
15.0,-7.047127949234935,8.438421404078955,13.565970839834709
15.05,-5.765845793943529,9.335760388624596,13.63166612765384
15.1,-6.4235734961652105,10.235392833686033,14.02429939909972
15.15,-8.13847377377151,9.060430021148049,14.092926697500607
15.2,-8.112060660375242,7.075069552428558,13.922357862712962
15.25,-8.120634100957819,6.255360056120088,13.13066476301109
15.3,-9.189381051116733,6.6653764377421,12.601075783338139
15.35,-10.835946804777969,6.639721325291115,13.059186982886825
15.4,-12.378474752109565,6.088355039254552,13.375100545221137
15.45,-12.45847753907753,5.908971059704471,13.262490848554284
15.5,-12.10168892764375,5.991343857570295,12.90162551386827
15.55,-12.035572477944227,6.530677798585374,11.97924058415357
15.6,-12.16529035936448,7.261860044859316,10.774761198086162
15.65,-12.032061052634187,7.335432622825633,9.835683002854536
15.7,-12.023811426029152,5.899757388563543,9.244467904695439
15.75,-12.69507733370824,3.2761768011072134,7.736506702112535
15.8,-15.078783908225402,0.771492613907087,4.052598817861823
