Time [s],Flexion(+)/extension(-)
0.0,-0.9639489286733035
0.025,-0.942173008295178
0.05,-0.9062510863031752
0.075,-0.8624403542077358
0.1,-0.8305940563412331
0.125,-0.8087381309175619
0.15,-0.7912405861854542
0.175,-0.7769643084037684
0.2,-0.7641010592130179
0.225,-0.7495845557376293
0.25,-0.7304530044731661
0.275,-0.7063008203294412
0.3,-0.6791475179491276
0.325,-0.6515557286378327
0.35,-0.6265817587876492
0.375,-0.6061299366821644
0.4,-0.5890071149164573
0.425,-0.5738250891541798
0.45,-0.5582996985241259
0.475,-0.5418095648234109
0.5,-0.5231305268833559
0.525,-0.5002937526885846
0.55,-0.4749480039589364
0.575,-0.4492721715949369
0.6,-0.42492703829113915
0.625,-0.40423618860572574
0.65,-0.387139124876715
0.675,-0.3689411525404247
0.7,-0.3429006993690488
0.725,-0.3036040050059479
0.75,-0.24340455508470105
0.775,-0.1565101935563729
0.8,-0.04096487904525659
0.825,0.10665143843715649
0.85,0.2978459382918802
0.875,0.5462092632450462
0.9,0.8658365164789867
0.925,1.2763085205039681
0.95,1.79922593829642
0.975,2.457169429537469
1.0,3.2672988638304834
1.025,4.243357798017423
1.05,5.388143578582076
1.075,6.684715607897965
1.1,8.100228417709612
1.125,9.58192941159601
1.15,11.068601694292282
1.175,12.493231459254433
1.2,13.791754343641317
1.225,14.913097372812834
1.25,15.821938039729606
1.275,16.53141421736008
1.3,17.062510168047627
1.325,17.43698572529251
1.35,17.672603749994657
1.375,17.79371518104817
1.4,17.836138450070116
1.425,17.80914392902715
1.45,17.729412649908415
1.475,17.6598203544963
1.5,17.662629875221835
1.525,17.7469546488208
1.55,17.886223808404353
1.575,18.093146476474327
1.6,18.344472387131244
1.625,18.545845502284983
1.65,18.65371015761902
1.675,18.705856222920154
1.7,18.732243702104906
1.725,18.780872657176374
1.75,18.886073095760135
1.775,19.062013415079296
1.8,19.328329415580185
1.825,19.703396238715126
1.85,20.18674445302697
1.875,20.764129188356577
1.9,21.449952543134142
1.925,22.284419659698653
1.95,23.268168224561652
1.975,24.368745263121045
2.0,25.505035920960314
2.025,26.568694210005223
2.05,27.484566791110048
2.075,28.235243420602274
2.1,28.852088256278968
2.125,29.370319882204846
2.15,29.788678477384742
2.175,30.090969873031085
2.2,30.297466149490074
2.225,30.472298081794232
2.25,30.619870698624357
2.275,30.710888188406656
2.3,30.760475227620137
2.325,30.798455099989983
2.35,30.821039743354294
2.375,30.825289646699016
2.4,30.819302611602065
2.425,30.81017252719647
2.45,30.85061203833105
2.475,30.99549221880702
2.5,31.270096056551832
2.525,31.68451272583581
2.55,32.23666296708302
2.575,32.88380507353143
2.6,33.56895601371034
2.625,34.189409077206776
2.65,34.630031232734645
2.675,34.884329509477716
2.7,34.99540576731032
2.725,35.021302034591514
2.75,35.11468980245607
2.775,35.47415874181733
2.8,36.22992318884095
2.825,37.48569983417105
2.85,39.561584445301186
2.875,42.64525404533188
2.9,45.79626068078422
2.925,47.904124279923906
2.95,48.894371782455174
2.975,49.19375247753449
3.0,48.72857363076665
3.025,47.39551554739166
3.05,45.4615045954902
3.075,43.2761807768217
3.1,40.9835563689111
3.125,38.52193147543832
3.15,35.74709946419833
3.175,32.533414630328565
3.2,28.874954882920676
3.225,24.91448665909844
3.25,20.95843894905999
3.275,17.371585454517877
3.3,14.324498227916191
3.325,11.72040924004577
3.35,9.583666392536777
3.375,8.278954629418998
3.4,8.25674088401382
3.425,9.577441265608435
3.45,11.737658398259036
3.475,13.921563091060062
3.5,15.459179930372175
3.525,16.55639166382856
3.55,18.30678496649897
3.575,19.806110665197355
3.6,20.516721225504586
3.625,21.28055787524467
3.65,22.448744428182778
3.675,23.55045818974353
3.7,23.91786143260912
3.725,23.52322010748072
3.75,23.088739282070122
3.775,23.25370815037437
3.8,23.82906311048162
3.825,24.44253608460102
3.85,25.217418697232397
3.875,26.368207224454764
3.9,27.629860596364935
3.925,28.647230018760993
3.95,29.442459559851862
3.975,30.30825450572378
4.0,31.3253967932576
4.025,32.34590879218672
4.05,33.298223547640355
4.075,34.236850132831506
4.1,35.25646109616813
4.125,36.44008973153441
4.15,37.84790052977846
4.175,39.42227452572117
4.2,41.17296729000612
4.225,43.77262416837661
4.25,47.87637582369437
4.275,52.28263847557547
4.3,55.08945529572503
4.325,55.97217093229465
4.35,55.419922782853924
4.375,53.58246241931294
4.4,50.3448881636667
4.425,46.02510138820047
4.45,41.359723078928596
4.475,36.77774508757867
4.5,32.12208643129938
4.525,27.032618880303193
4.55,21.564303904151522
4.575,16.329258712034292
4.6,12.147090178509824
4.625,9.871065452334749
4.65,9.957023694266846
4.675,11.989564418769982
4.7,15.324556601153331
4.725,19.30948752342728
4.75,22.9438001276895
4.775,25.935328300076158
4.8,28.609273807066838
4.825,30.777701582521804
4.85,32.13022488788586
4.875,33.12106462950326
4.9,34.18533550315262
4.925,35.05551652474709
4.95,35.29343438995227
4.975,34.9785278404699
5.0,34.50267301262973
5.025,33.95648370096871
5.05,33.313466554740124
5.075,32.71724249138204
5.1,32.319167793517686
5.125,32.18352107902009
5.15,32.39112918687325
5.175,32.9012312690774
5.2,33.52400544270455
5.225,34.05009340244366
5.25,34.54726429374358
5.275,35.18810477294933
5.3,36.004193252287834
5.325,36.96095135600881
5.35,38.11172510941512
5.375,39.59413498070289
5.4,41.541293966758204
5.425,43.89620041095343
5.45,46.535162827256116
5.475,49.71312636058694
5.5,53.45779530377589
5.525,56.63708126253928
5.55,58.398715695872404
5.575,58.93052325229664
5.6,58.49634125138638
5.625,57.07509856548671
5.65,54.89554264112392
5.675,52.43982552209419
5.7,49.99446794654454
5.725,47.454421042389136
5.75,44.57700458560655
5.775,41.275463250877884
5.8,37.58800657148686
5.825,33.60538790452173
5.85,29.486596077191226
5.875,25.40296319868316
5.9,21.531967896457857
5.925,18.10844276801899
5.95,15.478783269901344
5.975,14.07580242861489
6.0,14.140416273951448
6.025,15.089665129676773
6.05,15.918891260303917
6.075,16.634645706442626
6.1,17.65524736337431
6.125,18.86397733853746
6.15,20.06073280141016
6.175,21.06840683214893
6.2,21.512324532641962
6.225,21.59978491602929
6.25,21.740706218066396
6.275,22.07391603115476
6.3,22.65798521322614
6.325,23.590754674055688
6.35,24.88220557608961
6.375,26.144129119284628
6.4,27.011139086177295
6.425,27.450337751469245
6.45,27.51836901267398
6.475,27.288995244631508
6.5,26.835252319611776
6.525,26.15407372542819
6.55,25.258221968166982
6.575,24.273761657893523
6.6,23.356622663891628
6.625,22.600143159664192
6.65,21.999629122310914
6.675,21.481174867638018
6.7,20.949206220794597
6.725,20.32164616485571
6.75,19.562289703702344
6.775,18.680358786048334
6.8,17.76877666039511
6.825,16.93960917687154
6.85,16.20772793519068
6.875,15.558959131045658
6.9,15.037118577703838
6.925,14.720983524523826
6.95,14.627001084677904
6.975,14.700445999714558
7.0,14.882138910227875
7.025,15.130290057181611
7.05,15.396444529407503
7.075,15.637926400042492
7.1,15.841509723128773
7.125,16.026744131059072
7.15,16.193669909045315
7.175,16.31017813657555
7.2,16.344215159308483
7.225,16.291976755735053
7.25,16.169096383450512
7.275,15.99617240416338
7.3,15.795583267552283
7.325,15.568992595221193
7.35,15.289801423881793
7.375,14.959665414329278
7.4,14.630766883379763
7.425,14.353246881873337
7.45,14.159530818020267
7.475,14.066534822552244
7.5,14.068417696921621
7.525,14.136435213785822
7.55,14.232582415871473
7.575,14.3461175972679
7.6,14.500701391012507
7.625,14.750098627312598
7.65,15.101874301947362
7.675,15.49903443462206
7.7,15.877480159625403
7.725,16.213853920240606
7.75,16.51674717892109
7.775,16.7867359154726
7.8,17.012226241514593
7.825,17.18693446740664
7.85,17.322007040374586
7.875,17.448771825110676
7.9,17.599079423108964
7.925,17.796327027769593
7.95,18.05324524624752
7.975,18.376154823529404
8.0,18.77441075069801
8.025,19.25730452359055
8.05,19.81027081344568
8.075,20.462612207706297
8.1,21.278997130105054
8.125,22.302022010147343
8.15,23.5510503545792
8.175,25.07206592689342
8.2,26.962234932035084
8.225,29.295107242852392
8.25,32.055864100047046
8.275,35.10015117854335
8.3,38.23018845675627
8.325,41.306916792823046
8.35,44.254591787497276
8.375,46.83893004197682
8.4,48.58390745316501
8.425,49.0556973425078
8.45,48.201105262894266
8.475,46.38878994415704
8.5,43.93630375800697
8.525,40.8892690470878
8.55,37.28637652362044
8.575,33.269381980866875
8.6,29.055056997304057
8.625,24.87692851080835
8.65,20.89472007416606
8.675,17.16461783598298
8.7,13.780828590724507
8.725,10.910810727368238
8.75,8.699287402328354
8.775,7.270811182236106
8.8,6.772195487608989
8.825,7.236422182447172
8.85,8.5551071963574
8.875,10.39574233003449
8.9,12.335193571938916
8.925,14.569214496212883
8.95,17.375997871036454
8.975,20.118840790861892
9.0,22.500833070495425
9.025,24.846965348826167
9.05,26.61689401436756
9.075,27.00521405366217
9.1,26.622546674724187
9.125,26.431329412465765
9.15,26.343174599517386
9.175,26.098709155418096
9.2,25.818791428943072
9.225,25.552480267271793
9.25,25.358612099234556
9.275,25.41423884245211
9.3,25.765711034557416
9.325,26.335773225617753
9.35,27.026199805512743
9.375,27.758925402058345
9.4,28.522802869510972
9.425,29.354592824782987
9.45,30.21232165502482
9.475,31.0261684854988
9.5,31.77288576756541
9.525,32.44147309420275
9.55,33.080410818002335
9.575,33.867542018798396
9.6,34.99900014629062
9.625,36.564694899518976
9.65,38.43558225488754
9.675,40.74450881780087
9.7,44.0387807912727
9.725,48.2252672235069
9.75,52.19198976767117
9.775,54.86291483534198
9.8,55.92823134767597
9.825,55.55436112096592
9.85,53.89504910862128
9.875,51.09451954635585
9.9,47.64583610120043
9.925,44.17287163556124
9.95,40.8860653604939
9.975,37.44771173063405
10.0,33.49404828865589
10.025,29.035455604384012
10.05,24.35638353442507
10.075,19.69865669500358
10.1,15.151644431697614
10.125,10.906462408992772
10.15,7.505841880993198
10.175,5.728878721342345
10.2,6.135770937140246
10.225,8.580072867996353
10.25,12.373164598455327
10.275,16.8066940846339
10.3,21.279624095202582
10.325,25.20781000221577
10.35,28.408877082061075
10.375,31.084613232323957
10.4,33.22230914047306
10.425,34.50121530461166
10.45,34.88396349938773
10.475,34.66433823266683
10.5,34.27652333987347
10.525,33.57848007445603
10.55,32.28013972672637
10.575,30.613691796389336
10.6,28.945208818359774
10.625,27.360942768676335
10.65,25.85578342387711
10.675,24.47882637127742
10.7,23.22918583188942
10.725,22.082953004623306
10.75,21.049285921463138
10.775,20.11836510836669
10.8,19.286833855915596
10.825,18.610799795436016
10.85,18.134339729693945
10.875,17.826216089208607
10.9,17.654600886912206
10.925,17.624601400041332
10.95,17.709549547571847
10.975,17.832228942481986
11.0,17.937507564275343
11.025,18.017728063748084
11.05,18.059188905800156
11.075,18.054329278563966
11.1,17.9977995141722
11.125,17.851308970887192
11.15,17.60069793398183
11.175,17.28178867519667
11.2,16.940607285434677
11.225,16.61051087457157
11.25,16.30555679777023
11.275,16.0345871625349
11.3,15.765020881209479
11.325,15.420771890812347
11.35,14.951079868740306
11.375,14.381978360846148
11.4,13.798861032432576
11.425,13.280121696150857
11.45,12.860583483291519
11.475,12.547683086624195
11.5,12.348214943139325
11.525,12.280938645078663
11.55,12.355850533665459
11.575,12.538997709813838
11.6,12.747205286503025
11.625,12.895218722751725
11.65,12.937038691550182
11.675,12.878659131452705
11.7,12.757027100731719
11.725,12.610074666352022
11.75,12.47003816680545
11.775,12.357304687706968
11.8,12.28976384807782
11.825,12.28511234362422
11.85,12.345301936568148
11.875,12.449941731261234
11.9,12.574324367790316
11.925,12.697924499929902
11.95,12.802076521225347
11.975,12.875949679910477
12.0,12.918578504610439
12.025,12.922937453749972
12.05,12.867419065929589
12.075,12.729951733977769
12.1,12.503770732739968
12.125,12.197335108529371
12.15,11.841059776464343
12.175,11.483647176997808
12.2,11.166945933256374
12.225,10.913925008846535
12.25,10.731325437917048
12.275,10.612929700346804
12.3,10.537957375890299
12.325,10.488950448355762
12.35,10.469922808995767
12.375,10.490295933888747
12.4,10.54769255213355
12.425,10.638832159952463
12.45,10.754493570085291
12.475,10.870403869038952
12.5,10.962784818705394
12.525,11.023582084198138
12.55,11.054012998299577
12.575,11.057719324437501
12.6,11.04647931068036
12.625,11.035453971242312
12.65,11.032612879108326
12.675,11.04983696276813
12.7,11.091416244606
12.725,11.14204990254377
12.75,11.185331099875668
12.775,11.207380467967868
12.8,11.190625379521428
12.825,11.134807420241843
12.85,11.064511198334769
12.875,10.997239668626065
12.9,10.93105025374789
12.925,10.871150861663589
12.95,10.824424911454972
12.975,10.776755848517238
13.0,10.700812921910646
13.025,10.575913205938209
13.05,10.390567946035853
13.075,10.146657737334678
13.1,9.866568938041826
13.125,9.586027012183447
13.15,9.325488103294129
13.175,9.090229859243607
13.2,8.878366421530314
13.225,8.681404044109271
13.25,8.49896448469152
13.275,8.34210649585794
13.3,8.215250104411842
13.325,8.110418607658534
13.35,8.018819086412314
13.375,7.93686664861339
13.4,7.862490933479246
13.425,7.80435174420741
13.45,7.785747114998079
13.475,7.823044165928736
13.5,7.9157568550674435
13.525,8.049302041638388
13.55,8.206748588396806
13.575,8.376165264886591
13.6,8.551957571714027
13.625,8.733386387632617
13.65,8.913520238995504
13.675,9.079005169032598
13.7,9.224509006058847
13.725,9.34694408151764
13.75,9.431608895854435
13.775,9.465573105363116
13.8,9.453302026508686
13.825,9.405980022152947
13.85,9.332397204612635
13.875,9.239510485759032
13.9,9.134721297808259
13.925,9.026109861942382
13.95,8.916740617124054
13.975,8.811212705647714
14.0,8.71631628372516
14.025,8.631828820113471
14.05,8.544575605676702
14.075,8.444451361619217
14.1,8.330457573464296
14.125,8.207358589568042
14.15,8.084393899512753
14.175,7.96259651596054
14.2,7.837951602983905
14.225,7.711267823828692
14.25,7.5845242144912435
14.275,7.456310733997546
14.3,7.322039423441787
14.325,7.176387515582209
14.35,7.014676136920049
14.375,6.833805038350074
14.4,6.637762638511091
14.425,6.4418582949617935
14.45,6.248186883390015
14.475,6.043259741379476
14.5,5.83493123001119
14.525,5.640837759853816
14.55,5.457061567087291
14.575,5.2862939198944
14.6,5.180351586342519
14.625,5.216914966756511
14.65,5.4417499374651435
14.675,5.8313100383136405
14.7,6.32198256223148
14.725,6.8745396507915
14.75,7.49315353014107
14.775,8.20263501755653
14.8,9.01126798995746
14.825,9.892360039032809
14.85,10.81111314932957
14.875,11.751154573941793
14.9,12.673104944301306
14.925,13.553941959001971
14.95,14.408006624163068
14.975,15.27918831724983
15.0,16.17936729131169
15.025,17.088323276375004
15.05,18.009895290865114
15.075,19.018852262484913
15.1,20.14250438360353
15.125,21.222608256710735
15.15,22.11344099316829
15.175,22.8672463120675
15.2,23.560718802563862
15.225,24.15557451727109
15.25,24.574881106096502
15.275,24.782353519033695
15.3,24.78700021683396
15.325,24.578519769885784
15.35,24.134282056231854
15.375,23.519229662679855
15.4,22.90528985870463
15.425,22.454141973175172
15.45,22.249723524100702
15.475,22.295304624136712
15.5,22.551150262432245
15.525,22.945471180025766
15.55,23.359537524783647
15.575,23.689199903331723
15.6,23.92024614932195
15.625,24.08763596560816
15.65,24.230401365438073
15.675,24.408398556421044
15.7,24.6869511652465
15.725,25.101254841793494
15.75,25.64673510425256
15.775,26.275482207954365
15.8,26.91490677897274
15.825,27.547709492793153
15.85,28.26810692555082
15.875,29.14334126011643
15.9,30.112133270357596
15.925,31.055051665704998
15.95,31.8669195350384
15.975,32.477995839017176
16.0,32.90923591905038
16.025,33.22844099372443
16.05,33.426885198597326
16.075,33.46675400617955
16.1,33.34781670013237
16.125,33.08195641149436
16.15,32.695832523171134
16.175,32.238922348430954
16.2,31.783505594115827
16.225,31.398886060861596
16.25,31.117074096520597
16.275,30.936253944088456
16.3,30.831395624310073
16.325,30.770913274069134
16.35,30.73320373000548
16.375,30.718456864982066
16.4,30.71164381037141
16.425,30.6916783235094
16.45,30.690211864038268
16.475,30.765890870356056
16.5,30.945297423829647
16.525,31.223238329366943
16.55,31.58168014751873
16.575,31.965514289309475
16.6,32.317318052847284
16.625,32.723651455381486
16.65,33.44748663697282
16.675,34.63214138739974
16.7,36.166529799636606
16.725,37.90940538037297
16.75,39.811328547978356
16.775,41.769186742122386
16.8,43.44655660502361
16.825,44.577887039266706
16.85,45.26910920245409
16.875,45.86373580018192
16.9,46.708537987778904
16.925,47.98477823079384
16.95,49.54847781762036
16.975,50.96071332207139
17.0,51.80988280780443
17.025,52.01482494361029
17.05,51.675438800862665
17.075,50.830530118352875
17.1,49.426263375130716
17.125,47.37637945700631
17.15,44.55796612495168
17.175,40.90750297308863
17.2,36.49732253567168
17.225,31.560871183355548
17.25,26.416476748504316
17.275,21.32526509454843
17.3,16.527817296696625
17.325,12.239423154363134
17.35,8.61818936071858
17.375,5.716614235639911
17.4,3.4458121447080607
17.425,1.6295515860602632
17.45,0.12669446176393648
17.475,-0.9926818817377755
17.5,-1.526259667721242
17.525,-1.516191589299193
17.55,-1.2150271995831206
17.575,-0.776751392669142
17.6,-0.17830679854696307
17.625,0.6238988588936256
17.65,1.5549584598550519
17.675,2.504707845026934
17.7,3.439564859495775
17.725,4.34863319693938
17.75,5.14832268592592
17.775,5.756332772783479
17.8,6.196000503664597
17.825,6.5696060051305
17.85,6.953806022214057
17.875,7.336233609201693
17.9,7.65916683416017
17.925,7.889481151168127
17.95,8.053544251518314
17.975,8.159660200353079
18.0,8.218327686722255
18.025,8.291022574151635
18.05,8.395226126820992
18.075,8.498386247884287
18.1,8.602446803012459
18.125,8.67636522663983
18.15,8.689263948488652
18.175,8.679319194688604
18.2,8.656168418835136
18.225,8.638868497712231
18.25,8.667926425584024
18.275,8.792123882678847
18.3,9.187454476142744
18.325,10.107956542104217
18.35,11.664986160030228
18.375,13.756238986603227
18.4,16.06143431273075
18.425,18.098841148473852
18.45,18.8977352344412
18.475,17.65413704483122
18.5,15.398739114512765
18.525,13.722532136485837
18.55,12.793081970670803
18.575,12.589001739917343
18.6,13.284384973594651
18.625,14.858706914145795
18.65,16.65398007760792
18.675,18.05897495464962
18.7,19.062021815319724
18.725,19.80278758356405
18.75,20.394915068481954
18.775,20.887519472176127
18.8,21.156591727238528
18.825,21.19320568500091
18.85,21.144810874824802
18.875,21.08333499404346
18.9,21.133765817303402
18.925,21.375975449857634
18.95,21.759496811764468
18.975,22.231561041630908
19.0,22.80429491851284
19.025,23.543496431334827
19.05,24.456521526987082
19.075,25.53344763461953
19.1,26.829123302762053
19.125,28.32824892232381
19.15,29.841874611300923
19.175,31.235927888068268
19.2,32.56815497930192
19.225,33.91011962163548
19.25,35.344944613211986
19.275,36.986699061954184
19.3,38.82722396507135
19.325,40.613416816837244
19.35,42.02055436598805
19.375,42.93936263200821
19.4,43.48607955299734
19.425,43.80377916610487
19.45,43.95659404114072
19.475,43.92387026871
19.5,43.64859490215172
19.525,43.09864825575384
19.55,42.288239815122324
19.575,41.25107650653381
19.6,40.0140260157717
19.625,38.67074384586025
19.65,37.378732072895936
19.675,36.18801280419333
19.7,35.079150429806276
19.725,34.10762054305602
