Time [s],Flexion(-)/extension(+),Abduction(+)/adduction(-),Internal(-)/external(+) rotation
0.0,-0.9960374124677883,2.040256205538948,-1.71883018618034
0.05,-0.9945477791075771,2.0304714675113424,-1.7104977263230596
0.1,-0.9664866833644712,1.99215146285189,-1.6588017802241262
0.15,-0.9595179642458582,1.9756239158807392,-1.633681330894208
0.2,-0.9585693211788098,1.955731857546576,-1.6286268529208001
0.25,-0.9606979196155232,1.9445887836719287,-1.6292346660259227
0.3,-0.9584629708793206,1.930506704911244,-1.5990544708411447
0.35,-0.9358686627508402,1.9231850396718313,-1.5723926827035326
0.4,-0.8983237441984397,1.9109473244964084,-1.530532144562644
0.45,-0.9134571386951205,1.8765715128056546,-1.4696515641362964
0.5,-0.8871848467571593,1.833940145624428,-1.427305433431811
0.55,-0.9193103009063112,1.8108454081441354,-1.4855840683871115
0.6,-0.9454620279884413,1.8566474954126075,-1.5382456018624402
0.65,-0.9743169534933351,1.8687291467018068,-1.523358561701303
0.7,-0.972143807532323,1.8688793067661353,-1.4889870019340334
0.75,-1.022662421127655,2.026967424360362,-1.4954704224576432
0.8,-1.2167540819184584,3.249177570609338,-1.8349027374744682
0.85,-1.8533964642784437,6.678422909257472,-3.5334740707305032
0.9,-2.4044310642463036,12.027099707851159,-7.040526090671238
0.95,-3.872644503150005,18.285274814559948,-10.091335120221776
1.0,-5.372036363701866,24.613120534190497,-11.610818579415097
1.05,-8.200682922119935,29.40470012236981,-10.319353092041366
1.1,-12.465810368778843,32.96377831898925,-6.882567075069593
1.15,-16.61357990530046,36.15300827609253,-2.6098822842248914
1.2,-20.709055118429198,38.64640822718152,1.6937963434017147
1.25,-24.163372178630663,40.249542589361674,4.598067216371927
1.3,-26.93662141214022,41.399933239163836,6.145697372909737
1.35,-29.524710737196045,42.65301326935114,7.397426523607657
1.4,-31.61508676101168,43.77139728422004,8.359785417580312
1.45,-32.38746434376522,44.4991759869124,9.50578016990064
1.5,-31.91143526484085,44.38222051008747,11.292761936691658
1.55,-30.80227961071879,43.537485647044626,13.36257632667207
1.6,-29.225650036965412,42.48716865834954,14.898538704855614
1.65,-26.873855174691514,41.45153798553982,15.355306852201336
1.7,-23.056708850462943,39.98234193136992,14.952937113698484
1.75,-17.850774656325907,37.31561408769149,14.214490566119842
1.8,-11.586016035191895,34.00144126958134,13.057048151932873
1.85,-5.801175743122229,30.623796660367006,12.675616602274868
1.9,-1.9075561036130166,27.38824361201,13.672972384545021
1.95,-0.02571521906126775,24.743250496754666,14.855257380615223
2.0,0.9329828805250855,22.63882779644927,14.703800485136137
2.05,1.5885711354807506,20.292110498525712,13.111942010471157
2.1,0.3824645367224039,16.67015625657234,10.923600798924817
2.15,-1.7670398547021682,12.341398737232828,8.090945613438297
2.2,-2.7371269438124584,8.051584660317227,5.8558003121113975
2.25,-2.9552434971553487,4.832823650911052,5.103036151999886
2.3,-2.3344663043796934,2.7807506007792404,4.963411524918983
2.35,-1.6181235823645221,1.8330215998283024,4.9563649396244704
2.4,-1.7170437521446913,1.370298744335716,4.134361438935107
2.45,-2.3456641028914427,1.9076438779809122,2.5912579919609766
2.5,-2.611373115825112,3.912376893853862,1.5030093494646128
2.55,-2.470760147768171,6.253987054177409,1.5996811407102993
2.6,-2.0582539880025377,8.511627180405114,2.2715398277145273
2.65,-1.1113312747291784,10.50094310740359,2.8335051548894103
2.7,0.7859394132153601,11.325890461676012,3.141211875224189
2.75,3.2143621728886647,11.332883454274839,3.4480339833955966
2.8,6.188231982546846,11.038690287075056,4.098048567093034
2.85,8.862392498938974,10.520891908434455,5.141510125632127
2.9,9.970357335297914,10.721505329339806,6.352626187265457
2.95,9.84053544434048,10.46351854227303,7.417263670386678
3.0,8.171617017783484,8.776871155708653,9.259906389521108
3.05,5.985196748185464,7.041076519988065,10.961182725566418
3.1,1.9888909516355593,4.884225782081571,12.036232529123145
3.15,-3.2157122748285603,4.762341972622094,12.24460251356199
3.2,-10.647979993605158,6.0449119047609585,12.500057200091963
3.25,-20.183772570138633,8.10810286038791,13.787977939308043
3.3,-30.009701170287734,10.682442253228066,15.71122477502123
3.35,-35.183544184880276,12.409473812989907,16.490507437588292
3.4,-32.60881720968942,12.564330143677212,14.278829830431553
3.45,-24.3492004460603,10.608348139629967,11.858238056047528
3.5,-14.873062233481411,4.742367914632544,9.489185349472546
3.55,-8.58249385570059,-0.7772433675825972,10.385297754709894
3.6,-2.000853686696338,-0.6942199017735345,11.046312434156247
3.65,6.947471690740432,4.651056339738149,14.057438752232665
3.7,3.6077729859592784,14.861067587399825,23.827163937328017
3.75,-9.430334152718336,27.102466364357483,31.872974683217535
3.8,-22.37400908925609,36.0665814567414,36.495606488945846
3.85,-33.28872719206595,43.00869810685477,35.29301789760272
3.9,-51.125530425910284,48.847695709774975,32.12395685696912
3.95,-73.73321135487558,56.669777568910604,31.635117391358364
4.0,-83.56032140847141,64.30748627081326,27.334928976461747
4.05,-80.48128430286661,66.63080709903784,15.898785555229894
4.1,-71.39992921909749,63.63668319335667,17.36852610933037
4.15,-63.58976347848592,61.008114223765794,20.520689122278196
4.2,-56.64299237770387,59.60687637601463,24.716521665501563
4.25,-49.108618878837184,56.71288844398114,32.60861057472054
4.3,-49.18415987841419,50.56559118420061,49.540285728794565
4.35,-57.417920500061726,40.00918382673628,58.47792364836272
4.4,-54.016637105133746,38.673391932384284,53.98817315834693
4.45,-55.02652606249933,39.0854490983545,51.1300620220221
4.5,-57.739318266467706,40.458930777506296,49.73077576069252
4.55,-58.69969052599743,43.45088518210435,47.586959329652956
4.6,-63.02041480035295,47.21397643787852,42.65860924291486
4.65,-77.44233429367729,53.223089807864035,39.68337288494293
4.7,-91.43928395654947,59.46298342167779,42.066589658506
4.75,-96.3768563065906,58.93393641543101,37.05602789136412
4.8,-89.48539901406734,58.237418189852065,24.697539192812222
4.85,-80.2318539845695,56.105810231657564,21.770118414324315
4.9,-68.37306141800802,56.65690281428216,15.066532788382492
4.95,-53.60218195139482,56.98035397992983,10.879222450412152
5.0,-34.909448734656145,49.195215054448376,13.701705791901444
5.05,-21.635855524414858,33.36693547630456,15.689448588885284
5.1,-13.199237165347942,16.88547962140483,9.571085396496724
5.15,2.6481299628922135,5.199464048297039,-0.22113033952034905
5.2,18.007409179411475,-1.2208193210673863,0.8908184748192588
5.25,27.039343718874537,-0.47613844352893164,2.280273597421942
5.3,34.225434351513506,6.911417987884256,1.9494000904599522
5.35,33.92453600755331,10.187302663815062,4.132189501740393
5.4,27.549731931794756,7.915325784093191,3.2563114794759973
5.45,14.190502657396047,4.109651184681007,0.6890308555626791
5.5,9.675861386847952,3.593850099005807,-0.9834613444876378
5.55,2.766735646625269,7.865939521825633,1.3269884812034747
5.6,-8.193277558913183,9.10211869489087,15.114606985583766
5.65,-12.064199750014675,8.32974031914755,27.22584454660274
5.7,-9.073518848173324,11.335133947365152,26.687921854452462
5.75,-6.5488497552432445,12.491240579830558,20.831730993549453
5.8,-8.768176625465728,6.045638605655301,21.724026126263666
5.85,-8.936929311133191,3.1272103044739645,24.971742927098038
5.9,-2.403306717200906,5.67132406253018,24.48913033295205
5.95,6.188489797713854,8.356725233323107,28.057674476044493
6.0,8.623772702339872,9.621245905344791,31.134074839853096
6.05,7.023834525120286,15.39113240021396,31.253102087300828
6.1,0.7153683131941966,23.066644103405736,30.755663903120457
6.15,-16.051694138922123,25.873742587899923,33.04499711649071
6.2,-32.73708553612905,18.681394530347394,38.924733553323016
6.25,-38.39335197898307,18.951447619345895,35.2839211182361
6.3,-35.67285202393961,20.143093430038107,20.634620898109475
6.35,-32.26116306438112,19.123762778575106,4.166900191835829
6.4,-26.314415935289762,20.210735503305695,-11.983131525099074
6.45,-22.310664935441242,23.391287544513162,-20.718213302856675
6.5,-23.052753256017155,27.523866915616438,-20.56251718689052
6.55,-31.26682596947139,27.19274205931094,-11.158916797927402
6.6,-39.66533170151481,33.79667653768863,1.7685554039822111
6.65,-36.49490577312255,42.23981276595558,7.5941561210597675
6.7,-28.86063160217134,48.440588678435574,11.687445289682245
6.75,-22.44847993384743,49.557716931767956,19.887738020760178
6.8,-20.76607060925826,48.436682922139134,29.688786524746135
6.85,-25.248950439272484,47.80364317997796,39.5075009538591
6.9,-36.254752594496274,49.0087916501724,50.75421724599176
6.95,-46.68319802744326,50.72192108782664,61.98518233010862
7.0,-47.78990834360918,50.595768904129024,66.6797396879149
7.05,-51.148619497785084,46.468103282648336,66.21045656170938
7.1,-54.61920597855955,46.23632271861858,63.5486632576376
7.15,-58.1644622633297,46.21035350034448,59.02985549144746
7.2,-60.639738030409944,47.306024221303886,51.31759598858562
7.25,-65.22349121005519,49.3641362640326,41.83684491211381
7.3,-69.84151335966683,53.92918207496383,33.955497114451724
7.35,-72.2964958481149,58.93934999883168,27.27406977726725
7.4,-71.78234791726074,62.93753892376604,19.831641390191784
7.45,-68.5500639282425,63.4267289598153,12.886779045998829
7.5,-64.35863574570783,60.29958130225367,7.958097444861526
7.55,-62.63854586547486,55.04904048867073,4.510886347753706
7.6,-63.56469185337351,52.539840801447355,3.075664941252855
7.65,-64.38122629780533,50.1375294009302,3.3779450104034114
7.7,-65.42679715362283,47.85069157269168,4.746171996568442
7.75,-65.34480734626979,45.20037271918569,6.553547996162715
7.8,-64.5336690104723,43.17873473163619,7.097928698240656
7.85,-64.20129458501063,42.032000827275205,7.961244642957323
7.9,-63.26387608519788,42.01796401592336,7.81725345048943
7.95,-62.047766695019,44.85159469177966,5.273260279446866
8.0,-60.02660685524283,47.50627232740901,3.0263484804111176
8.05,-56.98701334727043,46.06342170592185,4.223824246053987
8.1,-56.271423719726045,43.53094288421963,2.1334837233332147
8.15,-63.18323539083519,39.74810231887422,-3.350279642274661
8.2,-71.78605629154715,33.43958977781854,-5.461524859837781
8.25,-72.53111650626923,31.146231526643355,-5.919671388166227
8.3,-67.57217195823463,34.44644721532799,-10.5770422111774
8.35,-59.458487228267366,38.32577975892243,-12.080329524560552
8.4,-49.59390080707709,38.890276502788055,-8.529041142650303
8.45,-41.36768178766051,39.83275555749359,-2.349384102090315
8.5,-34.09947060308779,39.21536933583818,4.908593348124658
8.55,-30.027821843054127,35.29735171523831,14.185551610582912
8.6,-30.12545814446786,31.201033062761738,16.94208661549906
8.65,-24.615802605008124,29.325086716999525,16.122147988230005
8.7,-18.03513914876571,29.67752011634363,13.806279367154382
8.75,-15.954042046785146,31.91761030763946,8.069578764457374
8.8,-13.501194905172355,31.55386774976311,0.4516689053453795
8.85,-8.930799637595014,29.503335977548854,-5.5074964637702495
8.9,-14.164297511913249,29.227727503073964,-7.774720193688582
8.95,-29.61360670396066,31.524688934994394,-8.600409064730487
9.0,-34.11255625235598,36.311779955082706,-12.279801354575206
9.05,-36.06181068094404,37.83586416472286,-10.70450539678805
9.1,-36.134819489105105,36.16336176311647,-5.262019987286111
9.15,-33.9185898011044,36.54380852006544,-0.052029063455115654
9.2,-26.320562761729477,36.60031778543952,-0.7050281187229691
9.25,-23.228713678054024,36.18083992416923,0.883857432900414
9.3,-32.92576417625416,32.98500755809458,12.248354708112414
9.35,-32.65120544531808,29.307362946377612,22.7358154748355
9.4,-24.874309302139963,27.781047926160433,28.39271854611117
9.45,-13.445693719142383,26.541423356995114,26.994808531718498
9.5,-4.346558405963495,25.819556777958255,25.266501976013856
9.55,4.176723561719196,24.55905446104617,26.2269996764282
9.6,11.067744041314246,26.222423442927695,31.006404717981965
9.65,10.309072190281952,29.70026426237094,34.85271181269223
9.7,6.547666497831503,31.671591952344876,33.18281485110125
9.75,7.137420201992013,29.485271350479927,32.64798148984767
9.8,8.571474347994327,25.202557518225504,32.204560226505976
9.85,9.185677996622807,21.270983189183752,30.17302908212222
9.9,9.076214377589894,22.722320253213994,28.27239802007561
9.95,6.0669774377247165,25.420327991166538,29.767875593696356
10.0,0.23443408672184654,30.569610759390443,27.70201167078738
10.05,-7.277229955809564,35.46026030185627,25.410685183222007
10.1,-17.144767287964047,40.72453864037376,27.3793291633065
10.15,-22.046018779376045,43.003963758155635,30.78843394917172
10.2,-22.080808960117853,43.171223171346796,32.521149149196354
10.25,-19.371235155978606,42.88234117340047,33.05132321335093
10.3,-15.80096523598848,38.88185645680967,35.05555750759767
10.35,-12.10873228465093,33.19634823041152,37.729714860384405
10.4,-6.844183868567356,27.957673615620525,38.80495635324747
10.45,-1.6231404593033032,23.87060126934602,39.05285707246412
10.5,-0.09766302035970575,21.409836657170732,39.3196714487867
10.55,-0.3085550800073406,19.27355230372764,39.66683755187669
10.6,-1.491642776304057,16.42923991854489,39.24542312758558
10.65,-2.863298668232591,15.420187939620678,37.78424473260554
10.7,-3.2600639769319937,16.373738956312593,36.62658689044565
10.75,-4.758634096542079,16.1861147849866,37.379802063332995
10.8,-6.5821282745894525,15.377988191189598,38.3642154095592
10.85,-7.838896325157473,15.518272955071945,38.426476724854645
10.9,-9.414544143492517,16.225517804482077,38.464768354463914
10.95,-9.805056570713091,16.903644206491776,38.65550568137556
11.0,-9.460498166617203,17.5436607825735,38.335365684168046
11.05,-9.109298141339176,18.233976488127297,37.95601232902972
11.1,-9.753459324718069,18.84930563818456,37.60394848228045
11.15,-10.175233963379624,20.221513941451203,37.34489218880178
11.2,-10.429103309460862,20.834850906606672,37.59692277142997
11.25,-10.989525791903365,20.882905612160695,38.37356906740762
11.3,-11.301009135661184,20.818829333636472,38.63399635428883
11.35,-10.89602042916226,20.853499573841745,38.063669188465596
11.4,-9.59648112705857,21.126312953295827,37.733082739070255
11.45,-8.24714041280659,21.371724800173116,37.63976062365845
11.5,-7.413628400510666,21.273118013808148,37.382192290695016
11.55,-7.123920133369928,21.299627798190752,37.23678883138631
11.6,-7.670969920529724,21.35537116396854,36.84855893339641
11.65,-9.457346472484955,21.49422971061288,36.29984765525322
11.7,-10.632224126914888,22.14491553343921,36.23671063663525
11.75,-12.438288602514556,22.863985979269312,37.27425975732667
11.8,-14.799197513726622,24.666876397446856,38.37347169854033
11.85,-18.187743548269726,27.30765051232214,38.57724303264968
11.9,-22.07941092397744,29.952537985947494,37.90463297422204
11.95,-25.949531887437924,32.33987469976381,36.583526294937315
12.0,-29.364713640615076,34.8094526357621,35.03706019665707
12.05,-33.173354565013256,37.34678142015502,33.33167540796403
12.1,-37.888664250177406,40.15199715119796,31.49875984458444
12.15,-44.9003390052715,43.71211407172981,28.340324421695538
12.2,-54.85353391784879,47.784399949943264,19.813524409948627
12.25,-65.47013161162313,51.155510431127574,8.819727402521147
12.3,-73.54471272046369,48.995153657449094,-2.0612427319934112
12.35,-78.31653331132178,44.3645623923708,-14.23615930411804
12.4,-81.07112861361358,41.61377699494021,-27.608635918130027
12.45,-79.99144591710116,40.32152952081737,-39.92512369408225
12.5,-77.91476538801632,39.27771486568807,-48.95707781630306
12.55,-76.31212845006951,35.150615224655155,-54.82431942707505
12.6,-77.06887419563529,28.4839229673445,-54.6876469387976
12.65,-77.06981461234662,21.093368370479933,-50.148001695713496
12.7,-76.53953957394654,18.809985867936245,-48.92635487052785
12.75,-74.70794900824535,19.183563640929755,-50.1409942653274
12.8,-73.3552199024271,19.548375475893057,-49.85026364563384
12.85,-69.91686700587093,19.243333886759544,-46.8498275199474
12.9,-65.88772717049584,19.887382715776738,-43.74108335426155
12.95,-63.843254619981586,21.47127586941624,-40.2059484894636
13.0,-60.38440233912578,24.575033264941563,-39.718615640200525
13.05,-57.432251976052996,27.746104473670332,-41.706013727352236
13.1,-54.68113439776372,27.985383563788783,-43.729038961711176
13.15,-53.317649391472344,26.890560218390934,-44.90955189796977
13.2,-52.12655492517737,26.283209220790713,-46.45578705056993
13.25,-50.62419190949086,26.236078313696368,-48.14389478694708
13.3,-49.87715509423115,26.51483681043664,-49.39817023701408
13.35,-49.59694392907265,26.517692085304322,-49.77518959810606
13.4,-48.90254403734516,25.69174134191139,-49.23619596711549
13.45,-47.70387285702277,24.654425979098278,-48.51208246741939
13.5,-45.9201324134083,23.681073641156207,-47.71321142310463
13.55,-43.41619704348288,22.2354093577243,-46.59573791338611
13.6,-40.29653840147486,19.97580782328716,-45.59192068557595
13.65,-36.92894099341459,16.91001578028498,-44.730652226148635
13.7,-33.18715553210396,13.627853809432365,-43.8596688094807
13.75,-29.084444597963962,10.992314385635709,-43.350118594221556
13.8,-27.06907449760164,9.19924164656639,-42.460701264941136
13.85,-26.11170236988117,7.459869521175506,-40.146424771572676
13.9,-24.85434918454958,6.02191744838635,-36.85297399963555
13.95,-23.329573554871477,5.371604722539093,-33.49768986173764
14.0,-21.482569873127222,5.405503141332594,-30.290253536046304
14.05,-20.811486391500384,5.910450354757253,-26.894983568420823
14.1,-20.523902467752933,6.465235203850693,-22.872305670024353
14.15,-20.45269662951108,6.9353450648164845,-19.43395525816276
14.2,-20.19084684373911,7.05863152429102,-16.77321118343452
14.25,-18.781248802334893,7.311103504183767,-15.377812101308711
14.3,-17.165506980614158,8.807098220535332,-14.579856266972458
14.35,-14.994805915466609,11.034398556494992,-14.475290621605087
14.4,-12.636112215865932,14.18632660668883,-14.69459782658212
14.45,-11.23298288743767,18.618689686998795,-13.716088044260509
14.5,-10.325390374607155,22.145230574916315,-10.988470093706503
14.55,-8.802448720280134,23.784768004459888,-7.367086140399533
14.6,-7.884229258061226,24.486070362809958,-3.7200157940734035
14.65,-7.416559242733514,24.486193808456346,-0.37620031945928395
14.7,-7.3710214925749336,23.69837705418465,2.7755795342249296
14.75,-7.3157358618172585,22.14169645708399,5.793772648722053
14.8,-7.006996712685005,20.083794904642406,7.565395002131812
14.85,-6.298464728937878,18.296394118978462,7.3071905037811
14.9,-5.248682047954694,16.777643600864916,5.4595646258891195
14.95,-4.3907615684659635,15.43638824635894,2.9347866117478394
15.0,-3.6136871720681585,13.905723721381069,0.6209844908029553
15.05,-2.8735951928980485,11.9193497133142,-1.143205237255939
15.1,-2.4268785747935264,10.033253787762508,-2.112581644567436
15.15,-2.3988852418829723,8.622043699416288,-2.5758290574991483
15.2,-2.4265854065970958,7.441175918304732,-2.854240367066853
15.25,-2.3358091814897297,5.761372273079021,-2.0744149323966807
15.3,-1.8869217471957827,3.949123501996754,-0.334805027764738
15.35,-1.018710250099177,2.8441005696610757,1.3501296340658187
15.4,1.2018343003959129,2.752083948486745,1.0030623380369716
15.45,3.377858312060588,2.7064144013667977,0.04958009304940097
15.5,4.070944568115379,2.750426192859851,-0.33169958942937006
15.55,3.4957678950830986,2.4534569712324887,0.7886653873639127
15.6,2.9823957121828473,2.260284315691418,1.8680895525273722
15.65,2.8616340149424078,2.846743189923859,1.8813182356193965
15.7,2.690301197605818,3.5946204197923417,1.3896180224768195
15.75,2.5195242527312343,3.7485104468584765,1.8774833688128851
15.8,2.6173527109704144,3.563150495298786,2.9128177800177144
15.85,2.835253554704242,3.3720911446853363,3.7089796317410446
15.9,3.0586231426505144,3.4748686304555663,4.27941888371355
