Time [s],Anterior(+)/posterior(-) tilt,Lateral tilt left(-)/right(+),Rotation left(+)/right(-)
0.0,-0.08229163071050656,-0.4530896212548309,0.05216855349620919
0.025,-0.10970822763372824,-0.4525076193468401,0.04554578389548112
0.05,-0.14470421572274705,-0.44400211916648136,0.01878829667237246
0.075,-0.13653645045085258,-0.42234026906440847,-0.03578789969834167
0.1,-0.02852904303612007,-0.41074368466405453,-0.10817554433648546
0.125,0.20865034910609162,-0.471658672562945,-0.18492078977672485
0.15,0.5451907281495558,-0.6790012729952174,-0.2545157508002643
0.175,0.9602687166572603,-1.058998171221357,-0.30272165161021064
0.2,1.4247432701643046,-1.575457034638926,-0.2880950913590812
0.225,1.925918935167231,-2.189862057769953,-0.16580792670855127
0.25,2.4972681501010183,-2.897373759019144,0.06824769040638852
0.275,3.174819423662378,-3.724518835589367,0.39691985925402956
0.3,3.966313849230601,-4.709336512818713,0.8150484529838109
0.325,4.849423407022049,-5.868381990697745,1.3072323760898001
0.35,5.802198543749552,-7.1991485363293455,1.8430989296465559
0.375,6.810359032482334,-8.69767656535909,2.399377260720149
0.4,7.853045023910876,-10.344097131796023,2.9694642385673973
0.425,8.909606101307551,-12.097029689926279,3.5516862654721755
0.45,9.948343476917318,-13.932094085886561,4.143461989465559
0.475,10.938855227932825,-15.863303330221878,4.760462467093124
0.5,11.87125703213576,-17.896369965577385,5.424804178456284
0.525,12.743248494111596,-19.98611889469065,6.127489363796549
0.55,13.566555816197079,-22.071415418760918,6.818858967509612
0.575,14.383220130661423,-24.132512033112278,7.458547363163143
0.6,15.185053677807113,-26.193634541669184,8.048174552297633
0.625,15.90674283759409,-28.210201597389887,8.57243263488207
0.65,16.54299650527978,-30.086950936296596,8.982614060748329
0.675,17.06438452597691,-31.742375237561607,9.264388468786843
0.7,17.43818744570016,-33.119018973438735,9.442673520202494
0.725,17.68712652857045,-34.20214875274318,9.53166073251427
0.75,17.85023743303244,-35.02501714725646,9.545128422156523
0.775,17.972646519306092,-35.62902969536434,9.512812830457555
0.8,18.05914666156833,-36.02314733121556,9.482145525018417
0.825,18.081166073214913,-36.18157585434753,9.487010336074919
0.85,18.021919854337987,-36.076318604321315,9.527592136834418
0.875,17.901094710380796,-35.692663418581425,9.57458007578655
0.9,17.734837223173383,-35.038798653848296,9.595335106484546
0.925,17.531614985393215,-34.135360304493474,9.56097212576555
0.95,17.29582987418569,-32.994111777365426,9.458288093337117
0.975,17.010531589917345,-31.620305773221094,9.286957002654196
1.0,16.648943244261545,-30.041526200265604,9.06574975001727
1.025,16.207921093822208,-28.292414300558722,8.820054032240572
1.05,15.698009256293263,-26.386310444978587,8.553686446108513
1.075,15.150179541467613,-24.325161881982876,8.258076180479103
1.1,14.592664439817039,-22.11785350634928,7.935863478301416
1.125,14.03315114664109,-19.781907201718234,7.5975809212717635
1.15,13.464786244610691,-17.347871026761123,7.249143784441943
1.175,12.866054020869603,-14.856257416113257,6.891543238005756
1.2,12.235186412722696,-12.339405060085856,6.522484812772955
1.225,11.592283086216403,-9.809171461487335,6.139522019328188
1.25,10.971639324502613,-7.25227215050208,5.737545354443925
1.275,10.408340399951651,-4.64810745284538,5.299815988398082
1.3,9.92950427459608,-2.005954432407579,4.830590961787801
1.325,9.542949762301715,0.6445632710482122,4.357873495074205
1.35,9.240299237562171,3.3035849542815794,3.887836225762963
1.375,9.011384559092344,6.0019689234832665,3.393827165204424
1.4,8.824857432642906,8.756252296973157,2.850201437812906
1.425,8.631295898148993,11.525883725075069,2.2601022363039136
1.45,8.42687590426642,14.228689129240703,1.6637357373878439
1.475,8.274327840801151,16.792789043575333,1.1221704606063672
1.5,8.214177758629708,19.201188794869438,0.6217151874215306
1.525,8.246909792448857,21.46863962557312,0.08689091375908937
1.55,8.35222089273296,23.569751088698695,-0.5321334177087973
1.575,8.490591754856252,25.447224904232257,-1.2498339571147974
1.6,8.669988633447138,27.064164293461964,-2.0337138261662266
1.625,8.904613151040497,28.413787113575058,-2.845990243805654
1.65,9.188634608745318,29.477542115593863,-3.6573257719186554
1.675,9.494949631226568,30.220857693307853,-4.434293297435367
1.7,9.825709559988422,30.63391764786583,-5.153123714309687
1.725,10.215440102180308,30.738481620162197,-5.818188146038464
1.75,10.690467462806078,30.563423583493876,-6.460234622294595
1.775,11.261036756145169,30.13646144219315,-7.117000878838051
1.8,11.950871950944467,29.48104558693149,-7.799506978412011
1.825,12.782533785947889,28.612062958772402,-8.501626573932064
1.85,13.781168789809188,27.55218562407902,-9.224596926867882
1.875,14.978419745647795,26.339856910500927,-9.969729081405687
1.9,16.390304482239998,25.01234987500295,-10.724829652371051
1.925,18.012745801377726,23.60481903146021,-11.46634529972787
1.95,19.81738356310057,22.172457127591567,-12.167017991634264
1.975,21.779242008989826,20.791633321273075,-12.8041292134523
2.0,23.912844913037063,19.507308374959994,-13.340602389497116
2.025,26.225159739287246,18.310563354192695,-13.73897827243985
2.05,28.691775533491363,17.158912866254592,-13.985567078265982
2.075,31.275209104956968,15.98857155559813,-14.080732089568565
2.1,33.92253532243674,14.75091365687006,-14.031982990500946
2.125,36.565514374792265,13.464732478548479,-13.85043587754825
2.15,39.17131835982639,12.204259681965798,-13.524940260857413
2.175,41.769924433956476,11.022114099536525,-13.026791629337769
2.2,44.388901564432985,9.917777843036514,-12.364561874360268
2.225,47.03646586643801,8.87856551117814,-11.582827918941591
2.25,49.70286164616734,7.932872532123143,-10.709924801171882
2.275,52.32048867427725,7.151061185030018,-9.779607841425019
2.3,54.838368577442424,6.556702604978275,-8.85851449735016
2.325,57.23489928890843,6.083286151151722,-7.98460565148297
2.35,59.518501273515845,5.662027384603315,-7.14034818223868
2.375,61.60038547483431,5.280664599055961,-6.29776794778914
2.4,63.42571474871016,4.947678379019282,-5.4829891000018725
2.425,65.01343398171528,4.657960298631465,-4.761928086065293
2.45,66.34649719941686,4.422200617365561,-4.150155436977083
2.475,67.43184021104953,4.2533773706902425,-3.606918540206964
2.5,68.27299934244603,4.107110310503593,-3.0878064436429855
2.525,68.91534975562524,3.923215041672796,-2.5651211186880434
2.55,69.3912643349049,3.6882426954534457,-2.051315943201756
2.575,69.63838172823841,3.4115372431744575,-1.6005733786075462
2.6,69.62376442153419,3.109755219197006,-1.2655930894591345
2.625,69.34096460955533,2.7912703736726128,-1.05078707147043
2.65,68.77550468491035,2.4630021974393568,-0.9439994086102852
2.675,67.95806699575336,2.1541511441045404,-0.9354893115529601
2.7,66.87541268100237,1.8919449474390893,-0.9951966708523788
2.725,65.52568376842275,1.6782819974930083,-1.088995049569671
2.75,63.94611197082181,1.4954109391187922,-1.1818963850605855
2.775,62.17644315738541,1.3425467982609827,-1.2634075004631546
2.8,60.22739976791216,1.2209231657697397,-1.352558709890214
2.825,58.10871391150352,1.1106754118854698,-1.467671563902534
2.85,55.83408704884674,0.9930163849355345,-1.6042782507557243
2.875,53.43038436161084,0.8628892042208774,-1.737682892117053
2.9,50.89618295979127,0.7178472387716408,-1.838169465746773
2.925,48.22836721039349,0.5527741175103024,-1.9051613080257739
2.95,45.45130239083942,0.3684799405939565,-1.958723525729305
2.975,42.615348808183214,0.16944995700942278,-2.028386176337202
3.0,39.75533671666326,-0.0385992068178694,-2.126120434735763
3.025,36.86396013742222,-0.243603707616032,-2.243309140777391
3.05,33.92317731955639,-0.4284229539514381,-2.3541073917670143
3.075,30.94079207607368,-0.5880247616410929,-2.4331303166979645
3.1,27.918177578101496,-0.7311522352570583,-2.47305195772973
3.125,24.861926437350814,-0.8621795029310044,-2.48362958919482
3.15,21.815229077567754,-0.9814015200176189,-2.470972184602047
3.175,18.840649558266247,-1.0967841398900156,-2.4374716514076096
3.2,15.987390726460958,-1.207743373114114,-2.3876697466285464
3.225,13.27525731113638,-1.3056091745205023,-2.3237271988107597
3.25,10.698757649539452,-1.3982260777444049,-2.241898192685161
3.275,8.224623272013027,-1.4973506761502298,-2.1468490208955493
3.3,5.840340135798055,-1.5872245972273797,-2.043887249848741
3.325,3.5732858731156507,-1.6324161773923476,-1.9577835903511913
3.35,1.4492707368183948,-1.6204466134045965,-1.8883508383741028
3.375,-0.5342459938162019,-1.5978529015200376,-1.799122275719789
3.4,-2.394024702184806,-1.6240802594000399,-1.6907950245031482
3.425,-4.150254673200405,-1.7038223264555452,-1.5880216539207164
3.45,-5.834625122124644,-1.7902638589148931,-1.4921771898806055
3.475,-7.4812167847116395,-1.8534814201337357,-1.403544351781735
3.5,-9.101653124263404,-1.89441210177175,-1.324377962430882
3.525,-10.66790604066907,-1.9169798579331516,-1.2724507050924407
3.55,-12.151765627545684,-1.935644604217533,-1.2589572339853146
3.575,-13.53561107204108,-1.9734274110960024,-1.2977850864291685
3.6,-14.815967854921707,-2.041528103435101,-1.397288146307858
3.625,-16.007668054394337,-2.1449530869280737,-1.5412879778555562
3.65,-17.127953422732954,-2.289595331582064,-1.711963038554418
3.675,-18.173208964059686,-2.4841194874813506,-1.8816250839596624
3.7,-19.14708293488993,-2.7554691686195305,-1.9993902543103315
3.725,-20.065144283485573,-3.1006185417765373,-2.030251719161672
3.75,-20.947916120782256,-3.460599699881935,-1.9766811394899053
3.775,-21.78770136541243,-3.811041067378487,-1.8582835524756953
3.8,-22.593632534380404,-4.171912472514175,-1.7151645649555685
3.825,-23.3589320847898,-4.529960964454138,-1.5973730837754463
3.85,-24.077563643365295,-4.864493855234193,-1.535746361405199
3.875,-24.736774745695456,-5.166945315948235,-1.5404912604354724
3.9,-25.324263463419594,-5.432933413111308,-1.609996506429792
3.925,-25.83164792156517,-5.663209696630639,-1.7450750629550882
3.95,-26.263048193733884,-5.870936581237487,-1.936448628912828
3.975,-26.633209112119737,-6.0668729381956625,-2.1662773867196066
4.0,-26.94689371746219,-6.249186180682613,-2.424640023250788
4.025,-27.19383442141803,-6.4195362286572175,-2.706725405765067
4.05,-27.37011108142344,-6.579251255405367,-2.9970669848959504
4.075,-27.48711408828921,-6.743643506919168,-3.2666889935752774
4.1,-27.551800134968417,-6.90840097792702,-3.511716368523814
4.125,-27.55006335305045,-7.0530496781172465,-3.736101813236724
4.15,-27.452731122649453,-7.168264562998289,-3.923101949248171
4.175,-27.236986778655996,-7.251713708359272,-4.065107189080365
4.2,-26.88959842054511,-7.3076112600397085,-4.169589012278172
4.225,-26.40633435203173,-7.3415833761499085,-4.2395120269668425
4.25,-25.78308868033449,-7.349576672615484,-4.27336712808054
4.275,-25.012317713532376,-7.327071660490285,-4.272356981979986
4.3,-24.100254598761584,-7.295331292985889,-4.230228175202987
4.325,-23.07512375426529,-7.316710103920386,-4.111443446291065
4.35,-21.97381042464424,-7.468293409647105,-3.865833023848016
4.375,-20.813629302806348,-7.791890825513365,-3.4873747158126593
4.4,-19.613936010633033,-8.285354781206193,-3.0340892879085626
4.425,-18.437415913498015,-8.925646052477447,-2.520547329493085
4.45,-17.32320158155871,-9.674361486480324,-1.8916283346487874
4.475,-16.262844055408262,-10.528508181543897,-1.1467500565022835
4.5,-15.247720689292754,-11.529119637222925,-0.35708176980119105
4.525,-14.283281167809706,-12.718020341825161,0.4180478590774007
4.55,-13.351967129707086,-14.108510040080109,1.1758264390231874
4.575,-12.438544573090047,-15.684729373651539,1.9459533131287072
4.6,-11.544464456010552,-17.412824753098334,2.7426739588612263
4.625,-10.665327210417116,-19.24371802418916,3.5359541365038383
4.65,-9.813308210094508,-21.120226059185946,4.290126410117679
4.675,-8.998006792634031,-22.989408979799045,4.988228173483877
4.7,-8.220816242232942,-24.784899380293005,5.6056951785421125
4.725,-7.514803748287614,-26.415743808101656,6.092571907915296
4.75,-6.920272487233855,-27.803599148488825,6.403454541159793
4.775,-6.430028369022581,-28.917485161215854,6.535478816792591
4.8,-6.056706349543795,-29.76435861307643,6.535717136430834
4.825,-5.82853699795657,-30.35329328130157,6.43078408961596
4.85,-5.743533993080663,-30.68363873901499,6.227935782283718
4.875,-5.773108498071222,-30.75713707343268,5.945696815617233
4.9,-5.8699136804985965,-30.558368430081963,5.581942446972696
4.925,-5.990913565925853,-30.060246647601957,5.110441058301106
4.95,-6.118018168780391,-29.25410813752202,4.518545246470478
4.975,-6.252823913633426,-28.149900946253688,3.811360212254444
5.0,-6.4105862333798385,-26.76040829086843,3.0014240747909553
5.025,-6.605858179683933,-25.10597392098846,2.1189207069874834
5.05,-6.8400964389296615,-23.227656802681622,1.2066842272195712
5.075,-7.108798826387357,-21.174372400300236,0.29210657093360104
5.1,-7.400282721803875,-18.977454458305225,-0.618797485802782
5.125,-7.697312897952361,-16.65164731909811,-1.509491710269523
5.15,-7.9907264094424155,-14.236826447197284,-2.3354924678890705
5.175,-8.271387987647339,-11.799340219325115,-3.0774166044027376
5.2,-8.514817314479197,-9.39444027807636,-3.762214931357162
5.225,-8.690513137183336,-7.0368399611466765,-4.418617446146332
5.25,-8.786995908869002,-4.712833243608644,-5.0468571684894945
5.275,-8.815022077748475,-2.4122955722585786,-5.633250278845811
5.3,-8.793357322881459,-0.14229042361095756,-6.172676361456391
5.325,-8.731933258956243,2.0760538459982647,-6.675856743892165
5.35,-8.641380267375798,4.220004213812018,-7.163537982111242
5.375,-8.529554865112392,6.2808914232101305,-7.647245441796322
5.4,-8.406546169837656,8.268197421500942,-8.116375798943691
5.425,-8.279471265698715,10.201987329001437,-8.55961938392147
5.45,-8.1209099442889,12.092618500500294,-8.973582734098482
5.475,-7.889331714486809,13.928657842970402,-9.339964439506318
5.5,-7.577229671122464,15.697367176219712,-9.637545174628032
5.525,-7.203767669906643,17.407107673475153,-9.873329215965686
5.55,-6.7885468210526385,19.085499352654438,-10.081510045649113
5.575,-6.354808296817275,20.738226718449088,-10.272512546906455
5.6,-5.912000090740927,22.355538337772376,-10.460505171760413
5.625,-5.439952382013286,23.92082915642106,-10.675281022579043
5.65,-4.923887510277745,25.413136687765533,-10.934216981032103
5.675,-4.357207443425792,26.822489712580623,-11.23506121637497
5.7,-3.7490848848666745,28.148099598006308,-11.564701180135987
5.725,-3.1243007015711184,29.391921481119844,-11.914122867824455
5.75,-2.495612640117354,30.548344308121578,-12.269427492543082
5.775,-1.841743753800163,31.603491539934215,-12.617531981910853
5.8,-1.1563367451772497,32.534420770963486,-12.96276759343597
5.825,-0.45086854082008104,33.31119266526161,-13.313296357076498
5.85,0.29399701366308273,33.903430542869465,-13.670502060513046
5.875,1.1352363224836017,34.298512205108324,-14.038501134773723
5.9,2.1052063340133045,34.51190202017917,-14.435179423755438
5.925,3.2065676886363685,34.57760902689643,-14.890776876674233
5.95,4.415986588260374,34.518755555570344,-15.446322329472805
5.975,5.69873361255918,34.3321541454331,-16.094709887120715
6.0,6.978174900982416,33.955817221838664,-16.767120075549933
6.025,8.16453326637561,33.284775411662764,-17.403106970513452
6.05,9.195575178387758,32.22328063981413,-17.956676257201632
6.075,10.03915704219507,30.76994808883361,-18.38513627115942
6.1,10.717586440371138,29.010674673742784,-18.635111130571637
6.125,11.310183167127246,27.054406876859694,-18.659410157050566
6.15,11.806616218227457,24.95744709902588,-18.42433152649688
6.175,12.153911066986545,22.698732855850835,-17.90866385708502
6.2,12.363558752187906,20.257005675657663,-17.13538761013772
6.225,12.487220367475112,17.664245363960706,-16.173398261908666
6.25,12.56122821330319,14.971854276236794,-15.105774810885485
6.275,12.638301017155438,12.217323073467494,-14.004837236927859
6.3,12.74193072038978,9.412829108676236,-12.907146633586843
6.325,12.826840673137509,6.558998925078746,-11.842770696191337
6.35,12.878307002592516,3.68176286808925,-10.836108776614095
6.375,12.895176593253566,0.834160036205879,-9.873506306099838
6.4,12.851747793684229,-1.9292163240605065,-8.931863290839457
6.425,12.777120978135502,-4.563060740731009,-7.987521151160672
6.45,12.729706322794572,-7.063008283594223,-7.008898411010615
6.475,12.73947227198693,-9.481441726428551,-5.961041876720081
6.5,12.821350012009908,-11.882419797677018,-4.840265673568188
6.525,12.988456249440754,-14.319287060953714,-3.6648708264485554
6.55,13.212751588104759,-16.83509781511409,-2.4814028590539428
6.575,13.440179336627573,-19.41229701891731,-1.3642532990247325
6.6,13.615014394472457,-21.977486268830088,-0.34258813612953437
6.625,13.770796927229886,-24.440356030026468,0.5926814871840107
6.65,13.96822029048782,-26.74870099323021,1.4608386900369201
6.675,14.192094784416083,-28.894728421417046,2.2594796463400115
6.7,14.36497243154301,-30.88315181916007,2.970884740599319
6.725,14.47322824680265,-32.68430083364742,3.5573356164323204
6.75,14.530201513626677,-34.2493161744384,4.005301530563287
6.775,14.5185708176777,-35.56213009850946,4.337028978752309
6.8,14.389290296102793,-36.63686068612149,4.5989776798613295
6.825,14.15103265633371,-37.51057599628918,4.829879562549987
6.85,13.89822972844369,-38.20747098568856,5.027091082511566
6.875,13.694080244044939,-38.77664828323114,5.194620059038442
6.9,13.527734251635067,-39.301481417184476,5.408695885909109
6.925,13.37435589512278,-39.80586364092754,5.71633596222432
6.95,13.256161959415182,-40.21935885445774,6.049465461852959
6.975,13.18424888171668,-40.444961261034564,6.302248804044258
7.0,13.11593506597816,-40.457981976779024,6.457095501635414
7.025,13.01826560235781,-40.32059856922442,6.539400682541257
7.05,12.907364781955046,-40.076202787741366,6.564160850365119
7.075,12.829792939880592,-39.70730173245745,6.574396598495855
7.1,12.799290012833842,-39.1718769774966,6.6301217091905835
7.125,12.78519379630515,-38.44005668238834,6.748244938540469
7.15,12.78041031881403,-37.48556763025629,6.892272621846661
7.175,12.783002635692151,-36.285393922145055,7.010862463240734
7.2,12.748496012473865,-34.82106142061804,7.063156173213493
7.225,12.651101522114462,-33.083853090449075,7.020933125818238
7.25,12.497783885116352,-31.0850157188953,6.883095227586346
7.275,12.29989067193988,-28.851204150594494,6.6679398052606995
7.3,12.07610121135784,-26.408213158515807,6.385025341663143
7.325,11.854201660325742,-23.777828035156364,6.042537592552802
7.35,11.657291035960307,-20.987855646530228,5.669416219772394
7.375,11.480455077618009,-18.075462597217886,5.286483748468229
7.4,11.306320690864796,-15.096407664121498,4.895951118441171
7.425,11.137807425228202,-12.102872651283409,4.49876178266484
7.45,10.978310296176184,-9.11910064656632,4.110271535823808
7.475,10.81133009142722,-6.145581124294648,3.754105606125324
7.5,10.654820383717196,-3.156642233701783,3.4172307566008664
7.525,10.558248922842976,-0.12101185573307502,3.052395508414469
7.55,10.498706459917269,2.9749386845548975,2.636457559921448
7.575,10.41455532500365,6.116354355429887,2.188533860254505
7.6,10.270579149080833,9.23380466705854,1.7430728204771453
7.625,10.092672674891833,12.23010461502752,1.3123093519624687
7.65,9.96365453542656,15.063593491120578,0.8826469787908588
7.675,9.918589362009625,17.75999627440325,0.4347998693783107
7.7,9.971970483914605,20.37677969276398,-0.03692837210345658
7.725,10.118155055196198,22.954635311325866,-0.5091064615232714
7.75,10.315249475206095,25.498674554029794,-0.9660959222146194
7.775,10.533687589451239,27.9998889294543,-1.4309071495538013
7.8,10.793434631109012,30.449308724784892,-1.9370161598252646
7.825,11.100038067398396,32.81100435397547,-2.4646794625795643
