Time [s],Flexion(-)/extension(+),Abduction(+)/adduction(-),Internal(-)/external(+) rotation
0.0,-29.543653882041912,-11.829136246806064,13.834621243949334
0.05,-29.72486165057505,-11.833766790008545,14.089656836893454
0.1,-29.905441385152358,-11.872813525609011,14.439881782969788
0.15,-30.0885764453789,-11.94127300630153,14.736565957769322
0.2,-30.271671964274276,-12.016273236132173,14.918923941687426
0.25,-30.488485239224843,-12.160276486939045,15.148443323368376
0.3,-30.7234906510932,-12.404220573549036,15.521057168002685
0.35,-31.030633509004616,-12.607645830759534,15.910912495284743
0.4,-31.47908882269372,-12.700580945764282,16.381831552466426
0.45,-32.02091145214744,-12.725702046121853,17.031607568926294
0.5,-32.6705845359721,-12.755028059758871,17.788685162253312
0.55,-33.45695908437987,-12.838684339667976,18.590125662084702
0.6,-34.46049160760352,-12.989672406513566,19.50134013182674
0.65,-35.7415269861346,-13.228844756487918,20.48244047552892
0.7,-37.20323233475979,-13.470813219755179,21.54736799464038
0.75,-38.790427134068935,-13.732842268759933,22.601005241109554
0.8,-40.48171885426893,-14.021827274924236,23.587257791272123
0.85,-42.222995313969214,-14.311661657766333,24.453589666360845
0.9,-43.866217344765005,-14.491928413360272,25.19031777635168
0.95,-45.383273453760246,-14.614538772476006,25.899973071385983
1.0,-46.793662924020154,-14.657835512718975,26.557935859834657
1.05,-48.14299181648423,-14.641802352114631,27.122174863398282
1.1,-49.38768108100005,-14.633906795584778,27.730473717244937
1.15,-50.643158191203675,-14.6483682547108,28.353024007335836
1.2,-51.915612584017204,-14.716748269053054,28.963627402193843
1.25,-53.21445849761487,-14.823361915604448,29.53970931526761
1.3,-54.50544914634484,-14.984215140890306,30.069482540304794
1.35,-55.75730046764927,-15.141867749390157,30.53243358348025
1.4,-57.006494291473274,-15.360303978861849,30.984620562247724
1.45,-58.18635325947465,-15.631875387526298,31.530991381103316
1.5,-59.40058167769483,-15.90720114627099,32.005639289928176
1.55,-60.6875078030319,-16.088928193246183,32.37845201255342
1.6,-61.729492410156816,-16.378718434749597,32.82014846016875
1.65,-62.640358666756015,-16.647810528678736,33.13396981416967
1.7,-63.41275230211769,-16.906992976002535,33.215997540582094
1.75,-64.06200347792756,-17.138028671661736,33.13984379849349
1.8,-64.54659875152144,-17.334081371072482,33.05167958791888
1.85,-64.90219672914448,-17.446666387619654,33.011229294459774
1.9,-65.17129386607199,-17.50148323627844,32.97712599443448
1.95,-65.39183269048058,-17.588472108980195,32.919864899529244
2.0,-65.5766589592462,-17.676625381734766,32.87801751647708
2.05,-65.78163017688664,-17.74406806274165,32.83026800500575
2.1,-65.96747359558377,-17.79447953335469,32.77861122858504
2.15,-66.0914588312045,-17.75047622320038,32.78803156664272
2.2,-66.21457935412428,-17.67193123037104,32.8642253450702
2.25,-66.35737983930552,-17.566030448997324,32.9535222050474
2.3,-66.45757138653939,-17.495490355958093,33.06816248917632
2.35,-66.58548638690169,-17.502552479984445,33.1307788484174
2.4,-66.6746677578703,-17.52216667626644,33.18219170311088
2.45,-66.75800915207915,-17.508145837698123,33.17423392767609
2.5,-66.76108508059882,-17.391124989584434,33.126972066396206
2.55,-66.7528711943101,-17.330796421753742,33.07509277177844
2.6,-66.7460794411403,-17.32738796270782,33.02361764290202
2.65,-66.76190502415469,-17.35853975866464,33.03357234609969
2.7,-66.77627636631375,-17.41623793477431,33.05758573972909
2.75,-66.73386602472007,-17.389309918349912,32.98357302402064
2.8,-66.72886307243908,-17.340259092683873,33.00346962872338
2.85,-66.7377804939033,-17.314163386549964,33.03125267669166
2.9,-66.68334247223615,-17.30226724041389,32.98850063203507
2.95,-66.61117788316264,-17.26998903818628,32.92422791833103
3.0,-66.58856825107773,-17.249831016210308,32.92456459034361
3.05,-66.53884380229294,-17.252811051374735,32.94958685985358
3.1,-66.50806718378826,-17.25552728434557,32.91017174899417
3.15,-66.47799848002163,-17.22681653433061,32.83252114856967
3.2,-66.45148445430242,-17.199448419774054,32.75076330709275
3.25,-66.47374862194815,-17.203513684811206,32.72921412591957
3.3,-66.52440179929079,-17.22311576774765,32.79132297505158
3.35,-66.5338271753463,-17.209837506853088,32.718049941898435
3.4,-66.57160021607763,-17.19141562525376,32.69824971281539
3.45,-66.67281529458573,-17.216843162460833,32.67241432168028
3.5,-66.79959166735455,-17.231681560829653,32.641225375751816
3.55,-66.91337653217556,-17.22451660826555,32.60570396238006
3.6,-67.03306603171514,-17.23277302051458,32.5985898143913
3.65,-67.2050433953872,-17.259366766684007,32.482298878349425
3.7,-67.43126934397212,-17.33875151781648,32.29385264803055
3.75,-67.63877320589302,-17.398878535956722,32.141671120351155
3.8,-67.8216568854223,-17.381240803086893,31.997809807171752
3.85,-67.95600098019986,-17.3436803140856,31.928220610424454
3.9,-68.09929272065554,-17.310538847174545,31.994038693275748
3.95,-68.12621772186647,-17.296584687909483,31.91112124324929
4.0,-68.0992545663136,-17.177358811428903,31.723673498371575
4.05,-68.1149264967949,-17.039257276192924,31.508873788293844
4.1,-68.19688392876726,-16.941382299017285,31.411512773277362
4.15,-68.24099185890697,-16.876749713442806,31.263293410910865
4.2,-68.20061333280427,-16.79560097554412,31.08574275112346
4.25,-68.18772254795375,-16.679929548689362,30.897558485429848
4.3,-68.15714947620474,-16.59088118297141,30.712942467088936
4.35,-68.11831699331874,-16.4256049680003,30.52212059634905
4.4,-68.08949946681425,-16.27184606251548,30.392557089248008
4.45,-68.0735979641963,-16.16028245648586,30.25204005959792
4.5,-68.03658657578106,-16.019093202258112,30.17217247250296
4.55,-67.9439567820151,-15.860659903426141,30.09195763778309
4.6,-67.78667808969452,-15.674851434375281,29.933597068590363
4.65,-67.57384739431748,-15.530066029273108,29.85978014001045
4.7,-67.32405012405393,-15.447097550513037,29.825251271444166
4.75,-67.02259136069715,-15.359935086025413,29.76928605362676
4.8,-66.70743673751562,-15.27859350457167,29.726788484313026
4.85,-66.3902041388425,-15.237823284591887,29.72474474133263
4.9,-66.04302526920897,-15.20368124487787,29.71965007698435
4.95,-65.68671873578857,-15.139432470497669,29.71072794202686
5.0,-65.21509637263838,-14.974861818259447,29.67588030219981
5.05,-64.76086539812053,-14.762003237073442,29.581727857719017
5.1,-64.27092031359827,-14.59685972733307,29.5149274360522
5.15,-63.652425565084535,-14.450420202173772,29.363198648395134
5.2,-62.91042864203158,-14.126200467647118,28.989043292906622
5.25,-61.85761409856187,-13.716908556760531,28.52518447306584
5.3,-60.39535174697374,-13.450504351979427,28.020242530423424
5.35,-58.43718137345106,-13.381841565997066,28.11398628506683
5.4,-56.87771479184662,-14.017117651876742,28.864920499318035
5.45,-56.265544279310596,-14.972348376781161,29.17024350586493
5.5,-54.55058767968773,-14.315077213559585,26.49950533948769
5.55,-50.958895103904,-12.780047547200324,22.963979811997035
5.6,-49.14904467842044,-12.603783233977179,20.655895644882538
5.65,-47.92775223047032,-13.229815882137107,18.943477174925615
5.7,-46.64705934176303,-14.244131028657915,19.514714675487852
5.75,-46.74508150692204,-15.10276846791199,19.714785015597382
5.8,-46.43158914616955,-14.543938178856738,18.806481911545898
5.85,-45.36270120772949,-13.755721850267854,18.743761124424278
5.9,-45.25472375646893,-13.86017947025949,19.298476696357827
5.95,-45.15558133202571,-14.453295569957787,19.932023556621083
6.0,-45.51564887997489,-14.625242116627273,19.637086791927057
6.05,-45.98177016121365,-14.036784262862936,18.606157958980585
6.1,-45.85889942564504,-13.703058854473802,18.38507503697819
6.15,-46.21401062523088,-13.966507580197584,18.82500281076415
6.2,-46.66427595154928,-14.508961286866073,19.300223533558867
6.25,-47.2616892417939,-14.42630238522096,19.40318578607875
6.3,-48.12502746040002,-14.232673603619165,20.162162690716084
6.35,-49.07390595423463,-14.481768484112532,21.81937007516024
6.4,-50.29728860471503,-14.745637127714874,23.66219547123253
6.45,-51.392819960987616,-15.021347829671965,25.64203216860823
6.5,-52.63293236361935,-15.463816337136501,27.96736302792471
6.55,-54.02804435286387,-15.848109466263974,30.37270988426339
6.6,-55.19145598780027,-16.030972343277135,33.034244134949304
6.65,-56.40977653146183,-16.600311061741646,35.85458412183092
6.7,-57.23903963833005,-17.193811663311777,37.71024920264809
6.75,-57.69072454972819,-17.185075566933232,38.57241359762083
6.8,-57.87693236300394,-16.757340535740813,38.79500379909902
6.85,-57.90520574688204,-16.274480004121305,38.779487614630405
6.9,-58.12260711224324,-15.872628997480222,38.77425099142629
6.95,-58.47224486004873,-15.81193109335267,39.02570009690098
7.0,-58.87960819933218,-15.892523404093941,39.39624382344996
7.05,-59.11095280140927,-15.746848638569277,39.39266915817376
7.1,-59.333567435775834,-15.582203445064883,39.26828328197105
7.15,-59.61442244831567,-15.63780199207947,39.43906167034152
7.2,-59.90391495373139,-15.770509550217042,39.63146568155722
7.25,-60.245203667797014,-15.974284648439792,39.9064161806599
7.3,-60.41967788999668,-16.146931887113805,40.11685727471537
7.35,-60.34653811868851,-16.1555574471576,39.840674346960284
7.4,-60.115820668314434,-16.221006584469542,39.43345577626389
7.45,-60.022587194974754,-16.47225107654458,39.18634068041962
7.5,-59.72665036468675,-16.73547021875099,38.79098829249983
7.55,-59.18801424028438,-16.820805872357543,37.84365843605593
7.6,-58.77293104814531,-16.924064045318413,36.80267000966984
7.65,-58.0185525763523,-16.93081450638176,35.44352454348786
7.7,-57.39369862984199,-16.820466982705515,33.636766273864744
7.75,-57.017910199457525,-16.161547165346242,31.982250731130463
7.8,-57.31922595797102,-16.35115591581863,31.376866713987557
7.85,-58.0402126078196,-17.408987924487253,30.732320685906988
7.9,-59.36462580786557,-18.56506064612615,30.103661776341276
7.95,-60.64433585001095,-19.090571699137364,29.429835133163653
8.0,-61.81055103884626,-19.44300343904516,29.04084649559604
8.05,-63.01107724876663,-19.909901351703944,29.093891866561602
8.1,-64.18896007033209,-20.133468964874442,28.989185768632545
8.15,-64.8692660547245,-20.110972869772475,28.803705064850494
8.2,-65.47619401254144,-19.985793515453476,28.751098580708728
8.25,-66.20076355115428,-20.131831792251734,28.9756949892653
8.3,-66.87963458663204,-20.397682090977902,29.31561164976416
8.35,-67.61328325594239,-20.62972777708815,29.640996591250723
8.4,-68.55122059520289,-20.964119172790895,30.11685993533384
8.45,-69.4773888456508,-21.135396171773223,30.541350371822283
8.5,-70.44475018370751,-21.218293373921725,31.186038771752294
8.55,-70.94590300848982,-21.202519618668585,32.14214960914653
8.6,-71.18706287132527,-21.227978010233397,33.40622853225215
8.65,-71.42820378365344,-21.62672288498823,34.97652180449395
8.7,-71.84576218856232,-22.16031871017651,36.48289264123835
8.75,-72.41613114671489,-22.612382724269235,37.70837679660392
8.8,-73.06775415305772,-23.18020183416489,38.863179715125725
8.85,-73.65881994500697,-24.10548468994046,40.155077012947764
8.9,-74.583720359477,-25.14866339916594,41.20349206904673
8.95,-75.87107241138354,-26.265521993373053,42.152193456951686
9.0,-77.4409891741487,-28.058663443369134,43.580098085105895
9.05,-79.18196924478293,-30.61015313004929,45.780074641066996
9.1,-80.65331972379072,-32.89209163300062,47.54836182445231
9.15,-82.40731625423336,-34.581300297627564,48.86554966346183
9.2,-84.52700652162197,-36.404608573438146,50.5828529842992
9.25,-86.38427424330759,-38.220561678167755,52.17084112000957
9.3,-87.92431922579237,-39.730185297523356,53.597383784145705
9.35,-89.38855654749975,-41.270181432196935,55.47466260770174
9.4,-90.38587117992367,-42.33142848901731,56.95870980794733
9.45,-90.77014495059146,-42.84180199655828,57.3562971266971
9.5,-90.78289897496956,-43.157005796083084,57.18680523835757
9.55,-90.82131385778757,-43.64119999247251,56.83211202449582
9.6,-90.70430961087544,-44.27767239497117,56.23938747074298
9.65,-90.69012715736645,-44.94604802447775,55.65667375293218
9.7,-91.17401236448883,-45.78493813069936,55.5233707422326
9.75,-91.75219443258321,-46.46814980417713,55.46064615025828
9.8,-91.75370255290738,-46.661214456784315,55.403665042857185
9.85,-91.39099130937008,-46.27654204306586,54.64103207922602
9.9,-90.59886612981852,-45.19826061505786,53.01995964524531
9.95,-89.10508218398367,-43.51703858239173,50.56406713565287
10.0,-86.86321006113256,-41.37076495391994,47.81107187727839
10.05,-83.95635666612493,-38.71059386336529,44.762114421022204
10.1,-80.73322286231706,-35.71028478863494,41.21466215148252
10.15,-77.20926587049226,-32.09816758816484,37.08306501901021
10.2,-73.92724707295073,-28.914008215229888,33.7840897330576
10.25,-70.68207930473012,-25.894173700467594,30.79534522874488
10.3,-67.29724777213944,-23.40904350994476,28.167171496309006
10.35,-63.94608736009738,-21.17427924068139,25.603482782244296
10.4,-60.801641757644404,-18.46240708567609,23.00819391890599
10.45,-58.02728286239373,-15.291485070016137,20.472402060598426
10.5,-55.436252382260854,-12.60326911481856,19.341587364966347
10.55,-53.2121784325617,-10.810326695861246,19.253403931761763
10.6,-51.24138622860288,-8.789788263390655,18.42089470414469
10.65,-48.66723348188646,-6.396332984370673,16.866483076977
10.7,-48.07986175636532,-4.967612967687073,17.044897453730005
10.75,-49.29012117554709,-4.832878835834545,19.259326473399025
10.8,-50.60750210866924,-5.157210787647841,22.318914946919975
10.85,-52.46297532286354,-5.618990405622855,25.90560736477656
10.9,-55.74060889946742,-6.396772070862826,29.112124295441728
10.95,-58.35465301707244,-6.855527741201247,31.844006614272775
11.0,-59.07578244779308,-6.714473033684316,33.3517529500505
11.05,-59.86002994412761,-6.7347046761552605,33.82218251627634
11.1,-60.33375475570717,-6.932067606915801,33.88799606925065
11.15,-59.894356043738746,-6.7005039775499355,33.0593255822943
11.2,-59.073062261824695,-6.552108345424402,31.983097049912942
11.25,-58.33224210466936,-6.554613563451936,31.19304745227378
11.3,-57.75788527763327,-6.691168263572648,30.49548772946543
11.35,-57.30388407755523,-6.809245085815113,29.60247524120031
11.4,-56.459515137096915,-6.643289227663889,28.403884690857808
11.45,-55.56249848021937,-6.138007017783625,26.95298098935076
11.5,-54.808659947259926,-5.565412492231243,25.883920992009802
11.55,-54.52333400625144,-5.382431367707197,25.807577627269925
11.6,-54.954306306846206,-5.521841354062627,26.09319109789755
11.65,-55.152192078093066,-5.434123692679977,26.373494928742808
11.7,-55.36245178744042,-5.366920372174716,26.846283773287375
11.75,-55.83288891659207,-5.866113355107301,28.120406159756932
11.8,-57.0059063952354,-6.69545930378683,29.524101760414148
11.85,-58.11071684672053,-7.3654908360310465,30.946324201021817
11.9,-58.78728723506672,-7.771621527715299,31.900929629888083
11.95,-59.289722110917374,-8.243698133712794,32.28011928783511
12.0,-59.54850331067977,-8.6902819441086,32.84679167600406
12.05,-60.563806284284084,-9.188351217033052,33.147120837893844
12.1,-61.353286526107624,-9.670537240834328,33.75490104719192
12.15,-61.66104565645708,-10.099353902753782,34.4851196664658
12.2,-61.358273699790374,-10.25759389831308,34.38704536053587
12.25,-61.53302898610082,-10.821411360403156,34.408610080647165
12.3,-61.80323706339503,-11.401839391263819,34.45508287407961
12.35,-62.25413140903728,-11.589636406344908,34.70342436042548
12.4,-62.698858706337106,-11.904288727918834,35.036320202999626
12.45,-62.87807572248214,-12.401876379710234,35.09510643786774
12.5,-63.04650482201577,-12.616018749019453,34.9994456311685
12.55,-63.505404296154616,-12.743270631441304,34.68615157852862
12.6,-63.82892652463033,-13.015111717220394,34.531246436429605
12.65,-63.87539720179029,-13.200208404534733,34.28226527990298
12.7,-64.1585714450187,-13.351265106120215,34.065157548710566
12.75,-64.43575255227275,-13.574100583504112,33.933548388245896
12.8,-64.5855414036385,-13.775600491106136,33.878625260663334
12.85,-64.65311283432678,-13.898998538878349,33.769433448918264
12.9,-64.658817387735,-13.976232905018254,33.67024140472998
12.95,-64.63579998537462,-14.075206234840499,33.66583156797646
13.0,-64.66180444229117,-14.123345926172563,33.6326028474243
13.05,-64.64993111301668,-14.083028740994834,33.588589308210516
13.1,-64.43964265609041,-13.868181070131538,33.46951148158555
13.15,-64.06013219298465,-13.629192596833887,33.267850323954626
13.2,-63.530883697944304,-13.494315023774018,32.956741487884045
13.25,-62.93615336127547,-13.351929471566251,32.45310938429844
13.3,-62.289342792065376,-13.092750619487916,31.89660415276459
13.35,-61.52757313447852,-12.938387597346548,31.42521851647473
13.4,-60.629264732601314,-12.898636266759855,31.01631868608207
13.45,-59.49829904205703,-12.89826361591226,30.249603252445425
13.5,-57.933030186428184,-12.88758716286335,28.805093560558248
13.55,-55.90195157886894,-12.95883614461928,26.682613033146488
13.6,-53.53322447963319,-13.329810126027091,24.102143668447102
13.65,-50.779550430230614,-14.187589447547358,21.50273972478252
13.7,-47.68100030232755,-15.286444303176996,19.11644237086936
13.75,-44.52645121294032,-16.259289868678053,17.19800771035724
13.8,-41.94751645152988,-17.002916893570564,15.781883946420766
13.85,-39.7371730628399,-17.56218385119504,14.768667561502674
13.9,-37.796976907129945,-17.912069773756574,14.029891174682891
13.95,-36.3275771324198,-17.843007723407073,13.141863285030505
14.0,-35.26720643678032,-17.488414261007485,12.292211586457661
14.05,-34.81076623850067,-17.223161199581543,11.935415688233322
14.1,-34.69450376398172,-17.524510499836662,12.097548537904032
14.15,-34.76487859974023,-18.342587051754624,12.61144732969688
14.2,-35.177443358604926,-19.004622558729462,13.191297177084987
14.25,-35.64129954809972,-19.30998239341044,13.639811895327773
14.3,-35.91225150309838,-19.590667799347642,13.983158262815833
14.35,-36.06814384461708,-19.67290771429482,14.029359707972835
14.4,-36.15975859829499,-19.333696078004206,13.909641704617636
14.45,-36.22870215181605,-19.04997856102478,13.852737104621202
14.5,-36.267927239578604,-18.961637221569397,13.869741569255643
14.55,-36.546259767587365,-19.05718072568383,13.702263718948348
14.6,-36.892266668297445,-18.976314622265562,13.535506875114764
14.65,-36.9980458044386,-18.772129431108514,13.669391757087713
14.7,-36.82159648721037,-18.867906703417447,13.76317656641129
14.75,-36.649615455974434,-19.00297727929092,13.756145652585733
14.8,-36.72102291899067,-18.946568559458537,13.709263843883427
14.85,-37.01819321459169,-18.85309861339995,13.609877717849889
14.9,-37.504004317099174,-18.789838205091275,13.61659113447097
14.95,-38.10299813045852,-18.49444957691764,13.589043939040343
15.0,-38.85652068593931,-17.97707553863182,13.519181421178526
15.05,-39.66365990720584,-17.362932289517033,13.643565810083311
15.1,-40.6166880819485,-16.79509698688818,14.072946542994325
15.15,-42.07652719583727,-16.264291878568244,14.92051627574831
15.2,-44.127272431798325,-15.820403681219029,16.16246236153382
15.25,-46.3713506596792,-15.298918489298394,17.65292742181206
15.3,-48.8851191694623,-14.818465151965917,19.29129516875351
15.35,-51.628269278361614,-14.730242316378646,20.885304508874917
15.4,-54.12218571373759,-14.74687809990309,22.13102280782342
15.45,-56.2364549797301,-14.563434953424828,22.987642275658267
15.5,-57.61212455350182,-14.5185652166067,23.756249883916052
15.55,-58.38402340921402,-14.562987969485953,24.28113899516073
15.6,-58.66530983591758,-14.429028937350616,24.662193566326824
15.65,-58.72432801641197,-14.403252459564511,24.87446698509169
15.7,-58.72519206308991,-14.79301992155111,25.042142840258823
15.75,-58.9513729811433,-15.150460416182595,24.881492671710742
