Time [s],Flexion(-)/extension(+),Abduction(+)/adduction(-),Internal(-)/external(+) rotation
0.0,-6.004394357818427,-2.444338715495846,-13.65719280088709
0.025,-5.991608411649762,-2.454113166015177,-13.638990856989066
0.05,-5.966295947727608,-2.4681318865565878,-13.626498145802826
0.075,-5.933364684944934,-2.4849943157217695,-13.628507399073543
0.1,-5.901723299616525,-2.5053944647591204,-13.62952917630392
0.125,-5.871322767618546,-2.527283245345128,-13.62107507495583
0.15,-5.828341641376939,-2.550486805100008,-13.609664624861008
0.175,-5.764759239180869,-2.5817636502194574,-13.595078525653053
0.2,-5.697739634316022,-2.619198488274083,-13.578794027192561
0.225,-5.663847747173403,-2.6469776661837554,-13.56254388024232
0.25,-5.661641854872538,-2.6700890616819892,-13.53113525223346
0.275,-5.6758482572297195,-2.681656259128816,-13.504829368999806
0.3,-5.694805177890065,-2.6652469800388503,-13.514424279170765
0.325,-5.722975484112859,-2.633742264309887,-13.539219529765411
0.35,-5.751924257956198,-2.6068085989722123,-13.556631215244067
0.375,-5.761336182612587,-2.5678875580268543,-13.602818362634673
0.4,-5.729006395588824,-2.48782494400714,-13.693304307294039
0.425,-5.624614818059682,-2.3553987608265445,-13.740978431743953
0.45,-5.438124605174834,-2.1545641185367432,-13.596398968812874
0.475,-5.23945287060683,-1.8832922576148263,-13.10384447085071
0.5,-5.147387961447351,-1.561198421950637,-12.235802337113897
0.525,-5.136239783054986,-1.2266550078867182,-11.203391899532532
0.55,-5.089268808839272,-0.961706708255767,-10.326703867274665
0.575,-5.043789233342436,-0.7899307963703597,-9.833681719848748
0.6,-5.159745650231229,-0.6670344945240344,-9.755706658192175
0.625,-5.614881904440239,-0.5435335531548533,-9.962392191169098
0.65,-6.5050798711872755,-0.35419308981801517,-10.270037112274624
0.675,-7.737823519520221,-0.068417140795873,-10.569372997858192
0.7,-9.023872120405318,0.28999549529069446,-10.936014231334914
0.725,-10.076502436737014,0.6826692862565146,-11.527701160658717
0.75,-10.826476317651329,1.1075984705077677,-12.426617923290019
0.775,-11.362477224168384,1.570359475869281,-13.611234844615138
0.8,-11.803167299212218,2.049571326177706,-15.009053769076907
0.825,-12.20272193602203,2.547331785446926,-16.547340318524636
0.85,-12.531263986365094,3.0662209701189402,-18.103890335673036
0.875,-12.759824764770086,3.5500196781862883,-19.49399826541837
0.9,-12.894868097416579,3.8887032144435727,-20.5709400937363
0.925,-12.916266108815007,3.947423845074478,-21.24933565169588
0.95,-12.831765400893158,3.7080550192866797,-21.517908826629167
0.975,-12.799755119210433,3.305585170756014,-21.457159496858996
1.0,-13.015800122151274,2.7929903233766145,-21.15706178381191
1.025,-13.53329209125763,2.1804911529735724,-20.744171347530227
1.05,-14.22100166010739,1.726665516728071,-20.454671681201788
1.075,-15.009195173310118,1.7938697006489397,-20.478757561172756
1.1,-15.834908392712917,2.5810682506233786,-20.850531297050125
1.125,-16.69601564900264,4.058916483097513,-21.46415243702632
1.15,-17.620746940283066,5.883369915881003,-22.16744933706192
1.175,-18.515326388819748,7.520446159669266,-22.86816942627956
1.2,-19.203962734653857,8.565756569468016,-23.52558339833839
1.225,-19.482195977106425,8.886565872299942,-24.172964002521717
1.25,-19.473067679075534,8.682265666969252,-24.87327079003746
1.275,-19.50978292076894,8.40393146160832,-25.604434243040835
1.3,-19.64961903178418,8.413106031661224,-26.243842447806692
1.325,-19.782795467515125,8.731390659384054,-26.74390785688299
1.35,-19.873930497963606,9.13797549710838,-27.127412502012024
1.375,-19.954155817855266,9.39374728752807,-27.305771229026718
1.4,-19.997723406521995,9.333082281993688,-27.22532249962608
1.425,-19.96561853400952,8.924083464059796,-27.050668442672524
1.45,-19.901646935463354,8.322113033021521,-26.975340341983696
1.475,-19.91226172038235,7.767231272171685,-27.024135183447004
1.5,-20.07174252154115,7.417968672551355,-27.13816483498917
1.525,-20.309844943061584,7.303838957027252,-27.348212129399066
1.55,-20.453382765079418,7.381859117164675,-27.725895697887612
1.575,-20.47756113233781,7.616333048681595,-28.284066445767667
1.6,-20.51400093128585,7.941568630416962,-28.95572561710255
1.625,-20.658310297059238,8.27034865437055,-29.615673484021123
1.65,-20.881002894703666,8.559949461072444,-30.118271475038703
1.675,-21.1002059445115,8.827202657100083,-30.398219750124518
1.7,-21.344274291458948,9.144659485633763,-30.497328840992235
1.725,-21.623802759064716,9.559934718977011,-30.509698245202692
1.75,-21.872326110842767,10.07257765431115,-30.56835405922395
1.775,-22.083393222577378,10.646692048049157,-30.754223517037694
1.8,-22.26930739502204,11.162164158363435,-30.99641099053152
1.825,-22.417780946426745,11.426881961570288,-31.105622287535326
1.85,-22.552604933243416,11.269202565215087,-30.854316478361902
1.875,-22.75724229357529,10.597290112984624,-30.041867677433356
1.9,-23.1188592809874,9.415384550826815,-28.585134258976172
1.925,-23.48593180742756,7.866159908153993,-26.675676788131664
1.95,-23.658430290496153,6.171018115929088,-24.597824692874802
1.975,-23.658296338034685,4.568807919293812,-22.644411107511722
2.0,-23.52525766007461,3.3189794331240887,-21.314297425283517
2.025,-23.359174541506746,2.7224331737696663,-21.082077117907037
2.05,-23.339008656994498,2.8441090604014314,-21.970827775084103
2.075,-23.450297160392953,3.456654578820961,-23.596773429343827
2.1,-23.503198367401755,4.2719955416822675,-25.48559081924717
2.125,-23.323132168567767,4.984579250605119,-27.259831836488697
2.15,-22.98065729741226,5.357755535564782,-28.69594148318587
2.175,-22.730716009521245,5.397897901687404,-29.70052552159897
2.2,-22.77656855079539,5.290717137241572,-30.272577052806227
2.225,-23.07320713707716,5.144587864913607,-30.516426870367184
2.25,-23.450031399198394,4.977955743268586,-30.59778878096869
2.275,-23.84510430502317,4.85536875195827,-30.62024546893378
2.3,-24.224268967294744,4.835118031451936,-30.60879597642266
2.325,-24.505047985387552,4.927086657047456,-30.596803440890785
2.35,-24.625210028790566,5.1492704562695115,-30.59470415569504
2.375,-24.604101766095074,5.478726980174344,-30.55619325288314
2.4,-24.492395306900374,5.823616677835344,-30.433329105898817
2.425,-24.38088138665719,6.147359126315113,-30.23551401712196
2.45,-24.2551834626912,6.457810941517087,-29.98211070649201
2.475,-23.969351807794208,6.707637663984714,-29.621356033589095
2.5,-23.503877484047113,6.861906839316985,-29.128381809950373
2.525,-22.993327006563256,6.944705103319565,-28.606412778666282
2.55,-22.487167110351187,7.009542141170398,-28.12386794242805
2.575,-21.93418833149832,7.102031151837906,-27.6506887765475
2.6,-21.42170852495197,7.284397162770232,-27.292921540692205
2.625,-20.978469044423548,7.572746948927563,-27.272873253552994
2.65,-20.463009286985148,7.906202384223924,-27.65160265195223
2.675,-19.85470451526551,8.20335245126824,-28.295975350168455
2.7,-19.29083031358813,8.421632306166831,-29.038877040012306
2.725,-18.879951860904225,8.581418958868289,-29.72045658333538
2.75,-18.695029008866697,8.670875095750462,-30.191531816605618
2.775,-18.726867059354973,8.607674777362346,-30.362118415119163
2.8,-18.764938660444177,8.3510506205973,-30.24057774373995
2.825,-18.532767015648364,7.964225986850243,-29.98944267283657
2.85,-17.992747948107997,7.681161299340853,-29.9255541908029
2.875,-17.403814337156422,7.783934764220023,-30.279042475005717
2.9,-16.98902373812865,8.339883264787668,-31.024548125240567
2.925,-16.811574853382243,9.177566638712701,-32.001446640095665
2.95,-16.82967005301656,10.006411156820082,-33.05937777522414
2.975,-16.914157021001337,10.604446693488303,-34.05886452975243
3.0,-16.969183564047597,10.891391089823738,-34.88571427293539
3.025,-17.003871686046473,10.86232329133799,-35.475578834130395
3.05,-17.078271663547845,10.420090799318071,-35.77861198485894
3.075,-17.26407788592577,9.513188064988602,-35.81979470750783
3.1,-17.676381407748767,8.33847419292979,-35.63690158558625
3.125,-18.355646127785526,7.028470365671959,-35.16107083891614
3.15,-19.25001316714516,5.579246123533633,-34.40231704187534
3.175,-20.313126374899984,4.05394618817729,-33.569246090854065
3.2,-21.392820462353058,2.7081316000020346,-32.91862927811945
3.225,-22.27194643029958,1.8696157244680993,-32.62728358626512
3.25,-23.077220458309444,1.8015418210581364,-32.852797537025296
3.275,-24.1634769737705,2.5910724344618075,-33.69658662263645
3.3,-25.692624346854718,3.956916953533429,-34.99141644566543
3.325,-27.578976429058415,5.392494595824715,-36.43272948198982
3.35,-29.44344862589537,6.426221864885994,-37.809922890724366
3.375,-30.891776748961423,6.829907946208024,-39.08537526868861
3.4,-32.01712330557096,6.863990848839454,-40.400486859579935
3.425,-33.40888584072571,7.153950098890204,-42.04334386093175
3.45,-35.36233290331289,8.197019680946049,-44.229366288145535
3.475,-37.5049652742456,10.153046124373216,-47.040103587458425
3.5,-39.808508711324045,13.08176728251433,-50.43396738772756
3.525,-42.4915910053304,16.78311263900898,-53.963943510295415
3.55,-45.07914685667642,20.263744565643304,-57.037700313883505
3.575,-46.81360031716894,22.400946090475497,-59.4153516410936
3.6,-47.77430030633935,23.092190687465393,-61.22665386348922
3.625,-48.25786726956354,22.900582344715403,-62.83514059936794
3.65,-48.39930064531944,22.463522381715617,-64.63791783527127
3.675,-48.63561977383727,22.549420981257697,-66.76639013969529
3.7,-49.3369708447756,23.642491086296207,-69.0621507976328
3.725,-49.92624715245902,25.322114551470392,-70.9284179219002
3.75,-49.64371419804109,26.7428926170763,-71.92262671143457
3.775,-48.760769229857985,27.740603976486913,-72.32677671147817
3.8,-47.82731828385261,28.52208763075025,-72.53399578907234
3.825,-46.89665733473428,29.01580526694114,-72.43753406383377
3.85,-45.97061958475831,29.132001480429935,-71.85712938570347
3.875,-45.171732909986886,28.957226949543394,-70.95925062722398
3.9,-44.529660080059195,28.63218413157974,-70.02700547554565
3.925,-43.9634122311798,28.31496300293874,-69.27293673773121
3.95,-43.462031889898064,28.189137426921164,-68.72924664637158
3.975,-43.05056169318232,28.29087396711056,-68.25134146364651
4.0,-42.689887589083185,28.40799049654092,-67.70908969113106
4.025,-42.36131884024988,28.266707184376834,-67.10906081222986
4.05,-42.1415275611573,27.81449319954281,-66.56947204306812
4.075,-42.109259424463886,27.310772410098448,-66.2171457100523
4.1,-42.24923218210583,27.110539034640908,-66.04818500635594
4.125,-42.32580611593871,27.300327823696676,-66.00493536193896
4.15,-42.06458623051858,27.625615754425663,-66.02240124414705
4.175,-41.71360933073491,27.934209749628973,-66.00561404665181
4.2,-41.49716127624059,28.16808971685612,-65.94806913991741
4.225,-41.3477911710243,28.32745642059948,-65.86829528295948
4.25,-41.16012392044215,28.541866848424995,-65.83051862184836
4.275,-40.92166270069707,28.93630138012764,-65.85958757218441
4.3,-40.62024884111815,29.467836610651517,-65.8637131226434
4.325,-40.29586443942444,29.963973965323273,-65.7719090242555
4.35,-40.02375110263598,30.230995957601987,-65.60144792798495
4.375,-39.85986191819366,30.180595625754748,-65.38382743092956
4.4,-39.82531480338062,29.90144891521312,-65.17702877751145
4.425,-39.8893603987933,29.553276316257897,-65.03928652483411
4.45,-40.02755121018689,29.235246187086958,-64.97029983771579
4.475,-40.208239791642065,28.98639338340655,-64.97526951572631
4.5,-40.42811792216114,28.846760478251134,-65.05806722430982
4.525,-40.65894110676396,28.78386978711166,-65.18664609519679
4.55,-40.86872587736112,28.701071463306047,-65.28432162569314
4.575,-41.07954424793942,28.558531693528174,-65.32647340515315
4.6,-41.28551713808489,28.374993572394146,-65.33383830798846
4.625,-41.443196529420504,28.20043136559415,-65.32665596097344
4.65,-41.52564899414639,28.080906652712006,-65.33220662497469
4.675,-41.56417795255406,28.021164809894504,-65.32880155895262
4.7,-41.561180745332905,27.96753521348638,-65.26830421949725
4.725,-41.476243523653146,27.85520046121921,-65.14643741995785
4.75,-41.38476139680918,27.668682198477025,-64.97832548200012
4.775,-41.395422297955406,27.466918702141783,-64.79949653852385
4.8,-41.48246772135297,27.33246067355339,-64.67771169046166
4.825,-41.523445389964465,27.26848743548554,-64.65730453071899
4.85,-41.507179914334074,27.205555251779465,-64.68774640096882
4.875,-41.507162162290236,27.102201822241103,-64.71059607655842
4.9,-41.48589565603369,26.94705831883291,-64.71265982779312
4.925,-41.3819882265201,26.77229300065683,-64.69008719204471
4.95,-41.21085848725272,26.65380036031108,-64.66435349433017
4.975,-41.02759151930367,26.638524412742676,-64.69552274453024
5.0,-40.85926200024343,26.670564286911617,-64.80637821488054
5.025,-40.752991498113765,26.65693104959619,-64.89755929466766
5.05,-40.74279853447707,26.57013204952198,-64.90345195596628
5.075,-40.791468810062206,26.438847646058814,-64.88549797760078
5.1,-40.87604188074838,26.333255074393872,-64.92140676781749
5.125,-40.93635890737033,26.278537194305787,-65.00845051419259
5.15,-40.939206534544994,26.27942169857269,-65.07582214696473
5.175,-40.8798448602277,26.281813068841362,-65.05283119870502
5.2,-40.817277926547526,26.225555923540437,-64.93577289882802
5.225,-40.80397428922203,26.1081269836805,-64.79474901595502
5.25,-40.82267283565632,25.970423467828702,-64.71346514896986
5.275,-40.851045571860176,25.86931148841893,-64.73181789509847
5.3,-40.87450251544739,25.827839445875746,-64.81649368014648
5.325,-40.8817854984432,25.837571797503575,-64.91497082771713
5.35,-40.887207863308845,25.897820374777446,-65.02747514716543
5.375,-40.91891588378438,25.998089870528347,-65.1740111502257
5.4,-41.00280347457288,26.10182432699017,-65.32852114432781
5.425,-41.11003392990046,26.174359003657123,-65.46337245615959
5.45,-41.21424668905178,26.2286994462536,-65.57654966876338
5.475,-41.31427788127934,26.278673743799455,-65.65844730714959
5.5,-41.399134767096676,26.320184279770228,-65.70118028031006
5.525,-41.46184092531931,26.33667124135247,-65.70216448455825
5.55,-41.519186525254234,26.32160952096175,-65.67546110456912
5.575,-41.60319172900634,26.28897180590544,-65.65820776663385
5.6,-41.735129663445015,26.26001557522248,-65.66853118157537
5.625,-41.87746211396445,26.243284668885856,-65.71906290175926
5.65,-41.99049809124037,26.211927081256015,-65.77335675435097
5.675,-42.07199094709451,26.159477461400634,-65.78734146046503
5.7,-42.1207727374974,26.121239459108406,-65.77498073673856
5.725,-42.14878034194915,26.115363185607944,-65.74973779072475
5.75,-42.17897714047177,26.102240542506628,-65.71054416430563
5.775,-42.24651712928826,26.06396822155555,-65.6721598684924
5.8,-42.34736267627567,25.997976615402322,-65.64660086549195
5.825,-42.451350280201964,25.9142241157429,-65.64121799486944
5.85,-42.5609334330124,25.858028285604565,-65.66065926708825
5.875,-42.657650881697464,25.84591593777459,-65.6804173087899
5.9,-42.719649689058315,25.838979894881152,-65.65893978672447
5.925,-42.7502996576111,25.802838251967216,-65.58625053947634
5.95,-42.77327595358552,25.767417149151417,-65.51803372613568
5.975,-42.83324631678643,25.83303196656099,-65.60871693096239
6.0,-42.92113527262873,26.033466584131354,-65.94368595489505
6.025,-42.91444119261391,26.150183672117777,-66.2654384456401
6.05,-42.74356081260668,25.898471765192014,-66.31529443705959
6.075,-42.6385408507862,25.379434991204636,-66.15517859548815
6.1,-42.596128980639705,24.862750025585953,-66.00524223212113
6.125,-42.41003829051045,24.49073202492459,-65.92600033306383
6.15,-42.03817786279669,24.213202415592068,-65.82844350603688
6.175,-41.605472595674534,23.915538670608264,-65.66136997115147
6.2,-41.150978279521226,23.486155317284563,-65.52115645473002
6.225,-40.68042745385319,22.91120144713144,-65.56674855560085
6.25,-40.257924086646796,22.277413896331186,-65.84126875756205
6.275,-39.93465710984646,21.648856469674463,-66.2643240776817
6.3,-39.74727060611284,21.09068887305259,-66.78177661295896
6.325,-39.72267722372029,20.646237253437658,-67.3960370487019
6.35,-39.76293129838702,20.153324729149727,-67.97712135785365
6.375,-39.73928037174823,19.4798881432942,-68.39594832389507
6.4,-39.67166449254992,18.757713582401678,-68.769101275195
6.425,-39.72381515608742,18.12973077044356,-69.14051442213113
6.45,-40.06716566129604,17.64025307869914,-69.28802248269334
6.475,-40.63380152451272,17.139593888855583,-69.0095439052892
6.5,-41.125415658798836,16.312250512877892,-68.25279417043176
6.525,-41.16231498282956,14.941859159941949,-67.15750680934313
6.55,-40.584532936658334,13.065512824107989,-65.95707051599206
6.575,-39.531114477574846,10.988049848901918,-64.66821493869196
6.6,-38.55864696721896,9.593288992721964,-63.50406582371795
6.625,-37.8557201203794,9.330566706820258,-62.453025901192355
6.65,-37.12298238453801,9.656817550982604,-61.31812114148302
6.675,-36.41470702288503,9.967764905828597,-60.32150617003648
6.7,-35.989737733431426,10.018642022279089,-59.66978086103195
6.725,-35.99739281005788,9.901318823274373,-59.19053181911757
6.75,-36.35670844496372,9.917495577798546,-58.73993221623531
6.775,-36.75978378930303,10.134699586868843,-58.22540220898687
6.8,-37.052499753331965,10.32104008771623,-57.53128955899834
6.825,-37.362414367876426,10.351364957701287,-56.796083909248786
6.85,-37.93367796236191,10.412348120486595,-56.51117335452335
6.875,-38.83675274378373,10.750620624749175,-56.95391364549516
6.9,-39.89001568882844,11.491673976365437,-57.88792345092682
6.925,-40.5779497197304,12.448833110828494,-58.74901339448654
6.95,-40.65061626291951,13.336253489000326,-59.12498576131354
6.975,-40.32714038539646,13.979519275520143,-59.03371819274469
7.0,-40.05965153289255,14.485433792834323,-58.75499630306001
7.025,-40.130293705403126,15.050577871266954,-58.505185072230276
7.05,-40.60805500030143,15.762608678679983,-58.29906091799338
7.075,-41.3056610157252,16.594979915211788,-58.15605163417521
7.1,-41.91544681601496,17.394550382130404,-58.16968354254771
7.125,-42.30949281733405,17.96603625510005,-58.34122267709628
7.15,-42.56614455119122,18.254253688198176,-58.65775336128682
7.175,-42.742813539020034,18.381750020146335,-59.14905752747943
7.2,-42.88116926207569,18.51812096787461,-59.72929510630301
7.225,-43.12213969185807,18.740679922567146,-60.2044105257249
7.25,-43.55205383248111,19.013544698346813,-60.556842079403594
7.275,-44.14588267610392,19.332029850616095,-60.91519936633129
7.3,-44.86607089210795,19.82063237934042,-61.41584025688013
7.325,-45.6230152645632,20.68797385322139,-62.22417715171829
7.35,-46.22673334869294,22.110242719371385,-63.3745040426359
7.375,-46.53128589477369,23.980083329268577,-64.50274908854104
7.4,-46.57360563907824,25.85404007259001,-65.14858402674625
7.425,-46.3977219845401,27.29437875032997,-65.2774756577453
7.45,-46.1185512717367,28.132681111297202,-65.20398606401297
7.475,-46.026980638206474,28.398318314643987,-65.22316336037045
7.5,-46.33744527400297,28.190577391609114,-65.45636427380818
7.525,-46.90952262865091,27.695341831959443,-65.89037886927437
7.55,-47.33856961743148,27.084708884871137,-66.30631701667237
7.575,-47.429080247693804,26.52934411003496,-66.41159438829035
7.6,-47.407960605890736,26.141392224683393,-66.19467035195834
7.625,-47.522678536655164,25.784859638215643,-65.90081992446616
7.65,-47.7528637527874,25.335025491875697,-65.86041490464636
7.675,-48.01544289171707,24.956747268033222,-66.23008184240265
7.7,-48.11787047605141,24.933198073086796,-66.8747828979548
7.725,-47.82662633972588,25.42726260893495,-67.44180391009435
7.75,-47.06741516027059,26.395177346364218,-67.75833067495186
7.775,-45.980924836317605,27.625743821027463,-67.86859367825957
7.8,-44.887818995803244,28.7535758321606,-67.8658595774873
7.825,-44.15976200830401,29.410009891886098,-67.93131054620379
