Time [s],Flexion(-)/extension(+),Abduction(+)/adduction(-),Internal(-)/external(+) rotation
0.0,4.674586519935713,2.2770421652870483,7.1802628848376235
0.025,4.678000469339928,2.2665310604545343,7.175001189278823
0.05,4.676660171800539,2.2508086242116883,7.167797311705678
0.075,4.668119259662158,2.238959516824721,7.161275890729275
0.1,4.660725852240925,2.2320294267726823,7.155457505678637
0.125,4.657846065708626,2.227381266530109,7.14719882913071
0.15,4.647604405169677,2.2230691042611093,7.133278040560549
0.175,4.620934267732631,2.2159660915336628,7.117670611841291
0.2,4.5811901716309045,2.207409472373286,7.111469946419276
0.225,4.535471298790512,2.205298947701334,7.1137558503345355
0.25,4.489940698370058,2.2092115779915664,7.11477982804211
0.275,4.451669289502775,2.2132295901113603,7.110017881890137
0.3,4.42470345463211,2.2131686847168632,7.105360712009393
0.325,4.404580738318972,2.2079247091599257,7.104624396734498
0.35,4.381240722716912,2.1993634589955806,7.1038935161867744
0.375,4.352579195308327,2.190123709215704,7.101219368743091
0.4,4.32235311613375,2.1810394718406143,7.094881878616726
0.425,4.290322581838817,2.174268740687337,7.085978626060123
0.45,4.256195902887882,2.17396469966861,7.081157727246611
0.475,4.219829837016709,2.1836454718604092,7.084329873327586
0.5,4.180830623550785,2.2048397600982366,7.095421595120232
0.525,4.144731225853302,2.235837193722659,7.118111365211995
0.55,4.115706783520245,2.274810727648172,7.159139500665954
0.575,4.085473872901092,2.323613081566314,7.217609554510353
0.6,4.03248035021764,2.3868757524080633,7.284562558948913
0.625,3.935338572480671,2.4696119225915494,7.349937803194971
0.65,3.7820186065415964,2.575755172397682,7.402493985528
0.675,3.5600603758485345,2.70979846496713,7.444296406562817
0.7,3.2418111857220127,2.877184897009141,7.500847868378532
0.725,2.7895321407693334,3.0703059816401175,7.588509373384919
0.75,2.1922159260543017,3.2651573858310803,7.698071307297652
0.775,1.48101059192083,3.4434653838336295,7.826386033007043
0.8,0.6964357893341603,3.5921321438633194,7.991736840305855
0.825,-0.13130415978228177,3.6754025612714427,8.20667327905381
0.85,-0.9620701460010064,3.6402532711458897,8.449553105758445
0.875,-1.7327017516455208,3.457425303231937,8.6921576820056
0.9,-2.3891090558335324,3.1443361041182203,8.965934138579199
0.925,-2.9080554608042504,2.7208593565911525,9.357985236188364
0.95,-3.2603163740992,2.156810561880674,9.939175593909857
0.975,-3.388698710596315,1.450417457322194,10.694936273362318
1.0,-3.2969173672372767,0.8088232639301653,11.558852952593364
1.025,-3.1069547673537334,0.5714862285354787,12.571934181662101
1.05,-3.0614276172503896,0.825766478310921,13.841050442537357
1.075,-3.5896026864722286,1.3400447411398695,15.269689235350047
1.1,-4.886940991529119,1.7981212511864262,16.55346639929324
1.125,-6.487590906746778,2.083163197971241,17.451093250982932
1.15,-7.7662191911402765,2.305247480287027,18.05646769024049
1.175,-8.628046760822675,2.550334812687351,18.62577528088696
1.2,-9.273956204023428,2.7926978060950196,18.94112361530856
1.225,-9.83101481844192,3.0458824345975333,18.416050929265506
1.25,-10.097276134638205,3.3573162789119313,16.990642179802066
1.275,-9.835368549145928,3.711870177460975,15.179154834710967
1.3,-9.24353632715264,3.923982416338849,13.542091979145907
1.325,-8.860615474967293,3.870244457556906,12.676765647379602
1.35,-9.039434893388703,3.679655261764613,12.95158915522997
1.375,-9.599914625312831,3.5804444768314414,13.813675675891393
1.4,-10.02262871937532,3.7567630995785564,14.16459659151903
1.425,-9.943283515606263,4.228403436449749,13.491751534294496
1.45,-9.386498680548065,4.7646877970848385,12.196208122871298
1.475,-8.671176011219377,4.994990993443493,11.116742338024501
1.5,-8.125115860689904,4.660687643340774,10.932529036933966
1.525,-7.782778123519517,3.8059945396886414,11.750523855723847
1.55,-7.425341417800134,2.74723513025192,13.049755333091579
1.575,-6.880130965185137,1.7758277661650108,14.178469275895555
1.6,-6.163483183252344,0.9364719926745283,14.876948620388566
1.625,-5.379625539043948,0.16527767522522005,15.201768442010486
1.65,-4.644287372126577,-0.5802164530798919,15.232079044210295
1.675,-4.04903039188221,-1.324692374601134,14.949501640127405
1.7,-3.588109480931554,-1.963760954204273,14.251538058352303
1.725,-3.2077786504299364,-2.20654699161095,13.081532856959678
1.75,-2.9237276709942632,-1.7854561245418339,11.527815651066966
1.775,-2.7390813611882625,-0.7404729254244012,9.806781498858891
1.8,-2.633946641909859,0.5807383029657766,8.216063758865864
1.825,-2.7063826778751627,1.7939730236717255,7.00465906234778
1.85,-3.1658160567316993,2.817378505812631,6.165180302482529
1.875,-4.083767246038662,3.820113509185856,5.5158153411539
1.9,-5.131234210675752,4.887944519076194,5.013443083275907
1.925,-5.879524632476258,5.8759669315740295,4.835886840411146
1.95,-6.346660270833192,6.585425585365315,4.974711553734759
1.975,-6.745610710995431,6.995679396204794,5.028401865978168
2.0,-7.086170538127647,7.1968054934838,4.747088085483405
2.025,-7.304176576397239,7.18376821299029,4.501327148698933
2.05,-7.40477472565939,7.057205148563364,4.632475092894405
2.075,-7.335005018883356,7.033870235933378,4.963992395755388
2.1,-6.9352328279056135,7.130559875093774,5.294624947197596
2.125,-6.242607054747054,7.228225399964697,5.7017666394178015
2.15,-5.538057644453598,7.343698245014746,6.307701078021217
2.175,-4.942103280060644,7.536739657532368,7.000291403661575
2.2,-4.31855486578124,7.780895521090485,7.488412228404655
2.225,-3.60756697865781,8.049535634290553,7.570256365175199
2.25,-2.888296848386096,8.35921785714931,7.240683256273085
2.275,-2.2063568745629873,8.722755621098575,6.627704434604938
2.3,-1.6404228186230767,9.066648463776358,5.964166181663111
2.325,-1.2734760103831557,9.291228348300322,5.439677196446527
2.35,-1.0480736095165613,9.413052260757507,4.996084571726576
2.375,-0.8805420312718111,9.593457857468689,4.4581410189871855
2.4,-0.7561159026441455,10.009140795179613,3.785672394116399
2.425,-0.6230432888616051,10.620207199455145,3.104359366240864
2.45,-0.4116358369084064,11.1558111830456,2.5600883230023395
2.475,-0.1550858826343673,11.396244612052184,2.127561972261932
2.5,-0.06773126635555096,11.36438319511705,1.6954049887621792
2.525,-0.3761785456939583,11.24011798409544,1.3029663181841895
2.55,-1.1986265738419761,11.102665415912309,1.0810634806072903
2.575,-2.5157242022680366,10.98906195805867,1.0588629575542805
2.6,-4.069320262458152,10.936410861106621,1.2826312685380843
2.625,-5.590167355222521,10.886107185799581,2.0605461218109666
2.65,-7.155144901804805,10.645632192136999,3.700752978171956
2.675,-9.035275647338109,10.021215898750935,5.954489494595821
2.7,-11.323271088636327,8.881997649485664,8.07628480209034
2.725,-13.701601315149018,7.351504425318661,9.410020747348758
2.75,-15.610030637705714,5.943826540456399,9.794068788502186
2.775,-16.97911343386986,5.266423729824093,9.417328014946321
2.8,-18.281280602978295,5.418270131500309,8.465366304481462
2.825,-19.696411418747875,6.018460704111152,7.274622925840585
2.85,-20.859934092387295,6.536365002049493,6.477907069303902
2.875,-21.24820042782686,6.6558271028867635,6.464954356540851
2.9,-20.9136834200213,6.4601562142151945,6.981451951576787
2.925,-20.376044673673736,6.1215906046356166,7.511724147600058
2.95,-19.81023414654998,5.836102282892553,7.70540359461074
2.975,-19.20984328618302,5.640777985412161,7.512375830277717
3.0,-18.782915935619535,5.5067545230404775,7.114397423837028
3.025,-18.855252517097675,5.378462747370483,6.65537159659656
3.05,-19.53632384996182,5.115822335190548,6.149502950115652
3.075,-20.72952690050461,4.744741249527505,5.738388998440354
3.1,-22.47679456623087,4.490736735717952,5.474633090755076
3.125,-24.706492446248618,4.538570619452711,5.008335576879505
3.15,-26.858714388352013,4.843158830675051,4.002229114687116
3.175,-28.26896383013347,5.06826324233325,2.64868297214521
3.2,-29.02098097072302,4.758302246554062,1.6383856175414149
3.225,-29.62813138248342,3.8286488225532853,1.6260280373713247
3.25,-30.060009553925706,2.6083841531634246,2.6550717242600164
3.275,-29.69889062858403,1.4462026033929711,4.099681378922132
3.3,-28.25486370476592,0.7558910883696214,5.118551651114127
3.325,-26.49629397985286,0.8339581239601881,5.362066330390335
3.35,-25.4488474051669,1.5673780290435084,5.205400093918709
3.375,-25.74214458713806,2.6529040191885476,5.086537845334452
3.4,-27.360489248041496,3.738912321238099,5.023880716946099
3.425,-29.43172741246339,4.4182641437491155,4.995578995458485
3.45,-31.62974702345312,4.453696107129531,5.146180467628835
3.475,-34.665773028978506,4.010320223822083,5.615789732291488
3.5,-38.18580719842311,3.50073969777142,6.616395502741774
3.525,-41.40055904851447,3.0185693277017327,7.978982115719092
3.55,-44.62596912466509,2.4583824134502854,9.35989102473974
3.575,-48.270900774874775,1.733224664553634,10.589676379318556
3.6,-51.882066700096935,0.8049547751921332,11.51243838297518
3.625,-55.128882982768964,-0.24045534497970408,12.04470568950372
3.65,-58.31468006742461,-1.156144816324621,12.24971959103616
3.675,-61.74085822828969,-1.8846176267989185,12.293140804316701
3.7,-65.330171690981,-2.758694748790777,12.317353631410768
3.725,-68.74187732728542,-4.1168047616804015,12.35284563963887
3.75,-71.74889344990653,-5.943793203923362,12.402797106696074
3.775,-74.3992140790862,-7.946750339267733,12.52404468798521
3.8,-76.83796179284722,-9.862859697175335,12.722024939885117
3.825,-79.13190586800059,-11.583545236916793,12.901499108245835
3.85,-81.22895095204629,-13.062498261931554,12.975617251613988
3.875,-83.0501480833224,-14.26405941705484,12.92305764114179
3.9,-84.56655658110114,-15.217273119658504,12.802853734659193
3.925,-85.76427729394342,-15.995477341449266,12.737759053650409
3.95,-86.6388462790093,-16.623398198364626,12.821737843061259
3.975,-87.22978179733975,-17.106643844613366,13.054238299150386
4.0,-87.59870514446412,-17.480945014709704,13.370254664006172
4.025,-87.81974174370626,-17.749877126337484,13.709494369159406
4.05,-87.97185677780253,-17.867519813710164,14.026285010277558
4.075,-88.09239442504666,-17.82021019018449,14.289363373928747
4.1,-88.18340391923635,-17.65895940681652,14.494119908548631
4.125,-88.25351826279704,-17.454218330613013,14.665642296368306
4.15,-88.31886279178832,-17.251728017532184,14.844827298961741
4.175,-88.39543210516317,-17.07950041857456,15.04767216637748
4.2,-88.4780599831592,-16.947751969886227,15.258365180645658
4.225,-88.53602557165804,-16.827033061953095,15.45316917932733
4.25,-88.56125702569007,-16.67769673335884,15.626465828214432
4.275,-88.5829004019574,-16.48049073460172,15.787048284885172
4.3,-88.61359752556807,-16.242995902958107,15.937416773238338
4.325,-88.64661853214614,-15.989768105535203,16.07930737843634
4.35,-88.67474263320464,-15.74065518214725,16.225635916768436
4.375,-88.6942731077098,-15.50865408239706,16.38414451547568
4.4,-88.71046864495543,-15.30200940109925,16.54450035705464
4.425,-88.72838526821818,-15.116290993237707,16.682181628117103
4.45,-88.73580855250721,-14.935795576544592,16.7809852454039
4.475,-88.72313656988554,-14.746944019366472,16.848587130120947
4.5,-88.70426619363468,-14.557686710078318,16.889549155787435
4.525,-88.69618071337074,-14.403832927811232,16.895885280928717
4.55,-88.71334481782566,-14.319359990368556,16.870704475714664
4.575,-88.7752898843113,-14.316050626087351,16.836281982590876
4.6,-88.88730877634886,-14.386083736298863,16.8141635941593
4.625,-89.04252880818642,-14.516836833831942,16.819855407566536
4.65,-89.23003318035767,-14.704136882923619,16.86873434982453
4.675,-89.44561234476863,-14.933167223911873,16.97024722395934
4.7,-89.69839361858844,-15.17271051823918,17.118338343527046
4.725,-89.98191915281119,-15.407063620731764,17.296583871670364
4.75,-90.26957184488558,-15.612442141794409,17.48330477745898
4.775,-90.53483171062643,-15.756838038274072,17.665100131376047
4.8,-90.75803391993858,-15.831648625412372,17.83442466555501
4.825,-90.92653557989834,-15.850064989011063,17.988400543073702
4.85,-91.03867692337906,-15.825747605841022,18.127740877845035
4.875,-91.11348057012259,-15.779442120282827,18.25336947279157
4.9,-91.17258375520055,-15.733762265470455,18.359827095179725
4.925,-91.2156083751195,-15.684815549244966,18.43841161517892
4.95,-91.24196929302892,-15.613366279815374,18.490797128123546
4.975,-91.27642960715436,-15.528578063752782,18.53332393529724
5.0,-91.33316663204404,-15.453294910867017,18.5835200175349
5.025,-91.39260499890965,-15.394379971757123,18.64129488624908
5.05,-91.440564481178,-15.350091307222375,18.69241911597968
5.075,-91.48143774850436,-15.32172434313252,18.73304758749936
5.1,-91.51836252394908,-15.30548338454056,18.764508702774812
5.125,-91.54841593163265,-15.289982864548156,18.78451993060741
5.15,-91.57945556549346,-15.278262507439864,18.7975614875192
5.175,-91.62276327757169,-15.277166041210018,18.811935852091747
5.2,-91.67176307401007,-15.271107819105993,18.830783639272266
5.225,-91.71820321339992,-15.249616769446702,18.853307532867458
5.25,-91.76216936173896,-15.222939086764006,18.878971515608605
5.275,-91.80125981089411,-15.20445685025374,18.909009752039687
5.3,-91.82784762887098,-15.202454188521436,18.937657117935526
5.325,-91.8418009060999,-15.213665947444031,18.956954744186486
5.35,-91.85211700065112,-15.225623474728675,18.968399944736024
5.375,-91.85739562034568,-15.231366530964614,18.974158606565393
5.4,-91.85730008159172,-15.237073026196137,18.96874053359011
5.425,-91.86808340153715,-15.255165915787137,18.952098257837328
5.45,-91.89404869337856,-15.293525571123617,18.93213098788277
5.475,-91.92210369571812,-15.348814159150015,18.91438041886179
5.5,-91.94431943985178,-15.419862975995361,18.904955340509105
5.525,-91.96519533772957,-15.511139125660804,18.907750533288603
5.55,-91.98856491044486,-15.61120664344478,18.912923189371657
5.575,-92.01110640108753,-15.702661971322822,18.910454523917124
5.6,-92.03075296379275,-15.786525564673886,18.903781787831054
5.625,-92.05059293906683,-15.878759162215768,18.894239205535285
5.65,-92.07216865330894,-15.98206594385057,18.87288546548152
5.675,-92.09029313486958,-16.08083592454533,18.838365157673486
5.7,-92.0969375415478,-16.161669438502436,18.798250643461508
5.725,-92.10010555644645,-16.240582993383402,18.767496290809227
5.75,-92.11480699178446,-16.342191104070363,18.75757847537278
5.775,-92.14719347369338,-16.477177260712104,18.765791899334754
5.8,-92.19840976826963,-16.644348008084883,18.783651695170562
5.825,-92.26109752918772,-16.835996577385714,18.80728376794634
5.85,-92.32429967278979,-17.047277951332116,18.838831181953285
5.875,-92.38479329440761,-17.278497141481175,18.875409530451254
5.9,-92.45080275694711,-17.526992184651153,18.912839060214992
5.925,-92.52960388985898,-17.786348837940942,18.956276204911248
5.95,-92.60990746132316,-18.04690570180842,19.01355520606289
5.975,-92.6461402516219,-18.27833625894262,19.087826500782345
6.0,-92.60777866512927,-18.459995496141257,19.18250147544741
6.025,-92.51462220342997,-18.612482026956517,19.30291338300728
6.05,-92.39376861682396,-18.721195166755127,19.43507257577684
6.075,-92.24195233085175,-18.693489977376995,19.5393118241607
6.1,-92.04802066413096,-18.434814448710615,19.575357142001685
6.125,-91.76856117708807,-17.895955598721883,19.519202229153326
6.15,-91.33704382210436,-17.107150440786285,19.378510605339407
6.175,-90.75165731987798,-16.1634479531366,19.196002068291012
6.2,-90.06566008210551,-15.1596010963276,19.025633083816796
6.225,-89.32122139620641,-14.150624131801962,18.874740007074237
6.25,-88.53578659825601,-13.143497607694687,18.694384564901686
6.275,-87.73887703691338,-12.14117623751759,18.438043547266812
6.3,-86.93753775965692,-11.15946904570523,18.104493551505648
6.325,-86.118441115261,-10.164013203669038,17.73470711361559
6.35,-85.27049207168315,-9.092825580543606,17.372875684012595
6.375,-84.37035954928737,-7.945923266614966,17.03128250852475
6.4,-83.39430483698807,-6.78473444300347,16.68884872405908
6.425,-82.34437184120816,-5.643706825844651,16.321824776835953
6.45,-81.2422687408586,-4.545468032992687,15.944962090830542
6.475,-80.14412655444092,-3.5720425441286126,15.592760814905313
6.5,-79.14210728955092,-2.786653624382371,15.265172796099677
6.525,-78.2869951949217,-2.166349433346928,14.904310156090153
6.55,-77.59933550195983,-1.6284345472213027,14.46157174111521
6.575,-77.10056364101865,-1.0923606217746926,13.969373225979238
6.6,-76.78763075620199,-0.6100005058050468,13.519985734899318
6.625,-76.59741125281558,-0.3144011259182176,13.211387992865282
6.65,-76.48806923001432,-0.2541073128737754,13.088988941710069
6.675,-76.48752000767703,-0.36913311582910263,13.102751177717899
6.7,-76.60310137270524,-0.5231417905855132,13.173549557891704
6.725,-76.80693842224127,-0.5662448126046602,13.229379482912634
6.75,-77.10572871082763,-0.43127198241476766,13.240199198554837
6.775,-77.55480601211761,-0.2201732877074686,13.21479240107392
6.8,-78.14229762397427,-0.09358458476726321,13.112317303463445
6.825,-78.71460048924767,-0.08872525290380029,12.89918315485598
6.85,-79.12408257175818,-0.12333757307359705,12.642076671898694
6.875,-79.40190031110527,-0.11500488641642997,12.47349935257457
6.9,-79.71424044989007,-0.07389585004859746,12.464982063806378
6.925,-80.1685204458107,-0.06316437230303085,12.527796898959496
6.95,-80.73396351246384,-0.10969315999107261,12.545711786939496
6.975,-81.31671081776771,-0.18240146131074497,12.519453036987096
7.0,-81.856716294638,-0.2656397607689874,12.50112686297315
7.025,-82.36311221226387,-0.3993084690248159,12.51418788095287
7.05,-82.85092990572842,-0.5853335017093851,12.541746923137605
7.075,-83.31113104765494,-0.7940364889179381,12.561186941414565
7.1,-83.71948194115205,-1.0108954984244525,12.557496769497979
7.125,-84.05994292660343,-1.2065124820914264,12.520708723600931
7.15,-84.31775984994995,-1.3610102470457714,12.47494921261059
7.175,-84.49422274359263,-1.5151600379285692,12.48498959393622
7.2,-84.58518892095078,-1.7455979901351892,12.574498512656927
7.225,-84.56697470485037,-2.101220294051803,12.69575133713653
7.25,-84.45934833919867,-2.549284574768562,12.779188625451471
7.275,-84.31227146293719,-3.0020632842621326,12.787256292714304
7.3,-84.16114089689212,-3.389069563334119,12.726394026708979
7.325,-84.02245799947327,-3.6618366636474833,12.636214395656733
7.35,-83.90531298817572,-3.799163288312142,12.563781744095907
7.375,-83.80901594559174,-3.834892359770253,12.535309083237847
7.4,-83.69878967956197,-3.8134779560706655,12.546478778883495
7.425,-83.51754013841648,-3.754059717906919,12.582453436603164
7.45,-83.23723907914278,-3.662994138566363,12.639880548100063
7.475,-82.88132304337311,-3.5545748399343324,12.711875059284862
7.5,-82.48613967324722,-3.4313915673319983,12.78062241255968
7.525,-82.08859876463015,-3.276815265785384,12.826458381795259
7.55,-81.71965390251577,-3.106054030112759,12.843821298757897
7.575,-81.39459850087924,-2.9650605062528204,12.828292424367554
7.6,-81.14677715925355,-2.863314198298879,12.769400844689166
7.625,-81.0096854355371,-2.792255265457542,12.68810817911091
7.65,-80.96315011559871,-2.75104568618815,12.630925062111574
7.675,-80.95848331014194,-2.71873230683105,12.608881763890244
7.7,-80.96825647610923,-2.6774711833936635,12.614249605156953
7.725,-81.0065711198421,-2.6224157629428007,12.642708644931268
7.75,-81.07713192944706,-2.529419173868891,12.667361192002145
7.775,-81.15160956201622,-2.3861380217415493,12.666775206102557
7.8,-81.21658389536839,-2.2279566530759367,12.65266803908487
7.825,-81.27584192823994,-2.1019951860634287,12.635227259679516
7.85,-81.31954896417633,-2.0250016648852482,12.619498009064232
7.875,-81.33845553833847,-1.9763097310246152,12.6174733849649
7.9,-81.33207495463466,-1.9371122495803086,12.654951087103374
