Time [s],Plantarflexion(+)/dorsiflexion(-),Supination(-)/pronation(+)
0.0,1.5266825228014298,7.122029363707973
0.025,1.5130074610577584,7.110696416745787
0.05,1.5037046573212756,7.109603128436943
0.075,1.497773665577826,7.115122127353153
0.1,1.4965293732980913,7.113526064367571
0.125,1.4964381455318227,7.106363860457657
0.15,1.494920073065434,7.099048913210284
0.175,1.5043716772748028,7.0983814572898485
0.2,1.5380113041338581,7.108291119352587
0.225,1.5758834643029613,7.112840573971276
0.25,1.603572611891149,7.099903180893168
0.275,1.6237791342396872,7.087967350644562
0.3,1.659013089692994,7.079912117606861
0.325,1.7003063364851185,7.067508611976882
0.35,1.7368087222817332,7.052931793810385
0.375,1.772172421696258,7.043976839042328
0.4,1.7983095761035415,7.039731126241687
0.425,1.8009082346927545,7.033547433109723
0.45,1.7916907500150738,7.028508965857812
0.475,1.7811408527965218,7.027022512466861
0.5,1.7736790140031666,7.032887325528963
0.525,1.7738113503920616,7.052980208195269
0.55,1.786519035104638,7.093006258874437
0.575,1.807768658371164,7.148498286962823
0.6,1.8240923804927967,7.201892606249998
0.625,1.8169666998562026,7.237258780135858
0.65,1.7762869695535102,7.264548745320789
0.675,1.707420396479359,7.305625428150933
0.7,1.6176847924814233,7.371915605176696
0.725,1.4947532718729002,7.458524247769446
0.75,1.3450963606880368,7.546209259955104
0.775,1.1886737989150429,7.616906323443391
0.8,1.0318134915403865,7.711910772682156
0.825,0.8648416756576495,7.889392105037551
0.85,0.7390911396671914,8.037767918266558
0.875,0.5596664759800432,8.160852671753643
0.9,0.2092638523300047,8.523951421363321
0.925,-0.4898097868919086,9.427970458095562
0.95,-1.6207343788102007,10.91741189235471
0.975,-3.019899939281824,12.758504894951153
1.0,-4.299976156702654,14.564537217058543
1.025,-5.031619801938872,15.880247222783458
1.05,-4.793818418153556,16.387364206833944
1.075,-3.5938570786939885,16.200462116388003
1.1,-1.9720273218783606,15.80908625114025
1.125,-0.4724184027877305,15.582241172252008
1.15,0.6358548218931285,15.586392464077347
1.175,1.3880141715769259,15.660411681388046
1.2,1.9539693091183574,15.617589895711983
1.225,2.4359624378953892,15.43272608659439
1.25,2.857778693240701,15.214669066785822
1.275,3.2323093511139436,15.075070972394421
1.3,3.578010691803251,15.022317135276273
1.325,3.9032462979920455,14.922102054538371
1.35,4.235566424813966,14.718157848955876
1.375,4.595515835767094,14.48643536176943
1.4,4.94544471987294,14.282526746462535
1.425,5.22769228758297,14.08848017988857
1.45,5.359219262292128,13.806873462668461
1.475,5.436860509525714,13.597225813169674
1.5,5.411039200734058,13.393606329268897
1.525,5.305507076202545,13.222056734397485
1.55,5.135148214276826,12.971457150081937
1.575,4.966559191080234,12.655276455558873
1.6,4.842561518429636,12.257592619540068
1.625,4.772493540540054,11.74954995225417
1.65,4.750980745661891,11.10642472545265
1.675,4.770237590111337,10.302281307889382
1.7,4.833619905946383,9.324661293641975
1.725,4.956402666696397,8.196771114285548
1.75,5.142433291056262,6.936037140401755
1.775,5.414230785818837,5.510742077654811
1.8,5.7387967024477105,3.826906891228744
1.825,6.188516978003128,2.0392332617038815
1.85,6.539162167170178,0.11076063161740583
1.875,6.396620780390471,-1.3284362888721608
1.9,5.501936109664281,-1.782648171468424
1.925,3.734160304717452,-0.8315615298819204
1.95,1.260621414309979,1.4946152056433788
1.975,-1.4453316274986616,4.6619920011210345
2.0,-3.6927132951094706,8.104786592828003
2.025,-4.916252293855273,11.422873382446562
2.05,-5.000230458176401,14.014209456422758
2.075,-4.1322051132685695,15.406611492708356
2.1,-2.5860166005346055,15.661119980673345
2.125,-0.7791428412569488,14.993870842297165
2.15,0.9824211059683622,13.706289980804337
2.175,2.6102150195185967,12.152045216574802
2.2,4.055908909936985,10.590170766042569
2.225,5.165326539860839,9.035163910840204
2.25,5.82575156178527,7.322339729874085
2.275,6.146750974284281,5.304321967467037
2.3,6.21049992809378,2.916662204880697
2.325,5.971183700688054,0.18726297835673159
2.35,5.397019888170401,-2.608849907970686
2.375,4.616752204941139,-5.011009237879757
2.4,3.8317140365656743,-6.656321096233089
2.425,3.1640362545854317,-7.429480021584546
2.45,2.653642908156128,-7.496884008348185
2.475,2.5317302211732913,-7.054685276499258
2.5,3.221488600035473,-6.049938366143751
2.525,4.5917590607373295,-4.1469098636702775
2.55,6.008373848237666,-1.0521888747479542
2.575,7.124493749445692,2.629290692599726
2.6,7.783821195701246,5.895017760016076
2.625,7.989096788116866,8.502099612427754
2.65,7.84923460652838,10.62512198539335
2.675,7.513233068355942,12.425142867758025
2.7,7.104544291087775,13.927240449658585
2.725,6.76101564028328,15.092210030716494
2.75,6.520027363983897,15.92866675654357
2.775,6.286332648814287,16.523877424545518
2.8,5.971200399854326,16.93838369040756
2.825,5.609791160475732,17.22721447749857
2.85,5.284088663844463,17.46513703205842
2.875,4.987021940029016,17.687035266454917
2.9,4.640615095983781,17.87506019561757
2.925,4.189378648294257,18.038981972941805
2.95,3.6365100193275013,18.214777386719156
2.975,2.997364536596831,18.387001607853268
3.0,2.2656702311287993,18.503966407400362
3.025,1.4353223496050924,18.563004363024294
3.05,0.5000590007771333,18.59006986364005
3.075,-0.5302193860863916,18.5189246532076
3.1,-1.5372357919104762,18.20537267511578
3.125,-2.264124455121944,17.490047610204368
3.15,-2.420647029261896,16.00833856977615
3.175,-1.7282614179218123,13.3321766450804
3.2,-0.26648249197873947,9.519201052741195
3.225,1.211890636506416,5.402441005873577
3.25,1.808766825744692,2.2559392178598077
3.275,1.356637603981823,0.5925211005904679
3.3,0.7674646680270882,-0.0872597885084039
3.325,0.7173335543919367,-0.38045931426980933
3.35,1.0771031630534262,-0.7171450448380456
3.375,1.433577831085024,-1.1971825033118255
3.4,1.606246814375144,-1.681470074342199
3.425,1.7213095310023288,-1.9197806032408433
3.45,1.9426006068300803,-1.8928433422876476
3.475,2.326276521872919,-1.7878001180017793
3.5,2.7220496229986573,-1.6147555768306379
3.525,3.0120042117089936,-1.4150529954078976
3.55,3.1836843659435203,-1.2245590542594547
3.575,3.2751938848717903,-1.0114563350841876
3.6,3.362698528307096,-0.7958664315702565
3.625,3.5064834240138887,-0.6622561874920923
3.65,3.667445857855735,-0.6276304824293701
3.675,3.7585951421115773,-0.6230883000892342
3.7,3.8083381118244146,-0.5153339189351467
3.725,3.786963656179276,-0.39274288736544066
3.75,3.7499033109904985,-0.23857519200616512
3.775,3.6670538511254307,-0.060759392255770456
3.8,3.6359291053041893,0.2686094782071097
3.825,3.5673480956414614,0.6331128374754972
3.85,3.5319407850570714,0.9889858927747567
3.875,3.5018403021277784,1.2842099397742615
3.9,3.4462670145083902,1.51221445214029
3.925,3.3821622972665413,1.6862109466255455
3.95,3.3429276164106407,1.8303811609221086
3.975,3.322595342959058,1.9876721003032223
4.0,3.297249093794472,2.1765600527852764
4.025,3.263138883846772,2.378990698983476
4.05,3.2189155556285782,2.578336569013508
4.075,3.15268306294344,2.7693382027482083
4.1,3.063680889697353,2.953523481362889
4.125,2.9798958780087017,3.1283526702858095
4.15,2.9357528708330887,3.286472874193025
4.175,2.9319002173382613,3.42132716071925
4.2,2.9018442233666613,3.4662696197221314
4.225,2.9527329277523005,3.628493382636837
4.25,2.9638972024381327,3.7068418794745024
4.275,2.980227659938247,3.7605121531843473
4.3,2.9751642003631966,3.7240039431143503
4.325,2.9994822576816196,3.7674301901197778
4.35,3.018613227297142,3.8129725983277347
4.375,3.0252857488000418,3.869774001841175
4.4,3.00848646307511,3.9423353614785905
4.425,2.963688477740381,4.030385085835926
4.45,2.8946432731497183,4.133467898978656
4.475,2.812277298698741,4.252264303710496
4.5,2.728383634842719,4.3878830572198435
4.525,2.649604944603642,4.53461869055949
4.55,2.581673200833893,4.6793682850130605
4.575,2.5293957599493675,4.8107135823703215
4.6,2.4966649443834843,4.919296322262761
4.625,2.484506434036695,5.0008051238904185
4.65,2.4866921869457532,5.059618053210691
4.675,2.493533335583431,5.102131954508443
4.7,2.501785605181249,5.135297933623445
4.725,2.5181918992134107,5.163641733996186
4.75,2.5452858727014003,5.18535123556347
4.775,2.5732695424896144,5.198730645234655
4.8,2.591238810990348,5.207096390201262
4.825,2.5988106459425584,5.214147565936712
4.85,2.602427796538111,5.2243593773975725
4.875,2.6043719297930092,5.242220986587256
4.9,2.603345199271173,5.268004772798917
4.925,2.6000690413574574,5.300587012362507
4.95,2.5983229304075244,5.3367172554445625
4.975,2.5979465682029437,5.3741985861136286
5.0,2.595187145637322,5.415288717731289
5.025,2.5880333965703834,5.459677975850671
5.05,2.5786691700240154,5.503858120969043
5.075,2.5732973247266777,5.544461722872165
5.1,2.572339988769614,5.582258541952828
5.125,2.568800048854786,5.619609104598412
5.15,2.561159590038917,5.655430485618443
5.175,2.555376213144944,5.684995830807574
5.2,2.554840977573121,5.705851089474998
5.225,2.5599081337750205,5.719968599375504
5.25,2.571172710609099,5.73011244471801
5.275,2.586804386421962,5.740142148955605
5.3,2.6036736391662942,5.755765161295277
5.325,2.6191698701551798,5.778537023065448
5.35,2.6295561076758367,5.8043601073711555
5.375,2.6362359963019046,5.828066482831633
5.4,2.6465991427191806,5.849206006253091
5.425,2.66310814801455,5.87294090864485
5.45,2.6802691759634527,5.902189392493586
5.475,2.6934745031822587,5.933696120470484
5.5,2.704274740758749,5.965790878911172
5.525,2.716731314245374,6.00003528156695
5.55,2.7342610931580844,6.034388957462993
5.575,2.757151468283674,6.06739968893533
5.6,2.7802677538569984,6.0998165210169395
5.625,2.8039750678637114,6.1270055327988375
5.65,2.8371064863976176,6.142458300888304
5.675,2.8819934720607336,6.14632107665423
5.7,2.9307436161233413,6.146325668752431
5.725,2.97847665804274,6.149141254825994
5.75,3.026033590967337,6.155162271614865
5.775,3.072726726439569,6.163158374359967
5.8,3.1188578455864953,6.16861444178715
5.825,3.164619310944002,6.163582882505711
5.85,3.2085681580099004,6.145284285398247
5.875,3.2557792848663865,6.117194942588169
5.9,3.3189025806590036,6.076775158921859
5.925,3.404530917702565,6.010185556832695
5.95,3.5032062457418007,5.917782754919019
5.975,3.600111556551163,5.823874456013819
6.0,3.6884474625719292,5.7469703264789285
6.025,3.8119846422471126,5.619249071961784
6.05,3.899458062956545,5.56706112602306
6.075,3.99078608539037,5.508178343778184
6.1,4.08453567073102,5.439337413601118
6.125,4.162619759098136,5.420272475739383
6.15,4.289885382105388,5.378582808031411
6.175,4.411500653536085,5.403140202516581
6.2,4.522422932370054,5.457464688854065
6.225,4.605797319899264,5.6152673644597115
6.25,4.709107080945596,5.679025998084302
6.275,4.819307213216337,5.718113896122115
6.3,4.935294698206802,5.734848012993562
6.325,5.12541609322595,5.67227392346787
6.35,5.313877434311313,5.61946679473662
6.375,5.577377536610736,5.451552754481567
6.4,5.870417538773005,5.009506811559199
6.425,6.240954599264641,4.349852943064794
6.45,6.53907868328435,3.500036961538246
6.475,6.664570051951919,2.5718738812637474
6.5,6.540957235616739,1.703953524765591
6.525,6.155134545040626,1.0269997586496609
6.55,5.583175287438156,0.5915948732423554
6.575,4.956711858905798,0.40259732406545445
6.6,4.391118273512066,0.4657386564687843
6.625,3.9337528361962666,0.7608271439292045
6.65,3.5927254048085486,1.2246654958178917
6.675,3.415376499941942,1.7664966195408538
6.7,3.5029135483074914,2.280768606726364
6.725,3.949254303840116,2.6848520334917274
6.75,4.717314697569203,2.9996736149632905
6.775,5.623004922441573,3.3308515507003604
6.8,6.474719505759684,3.7263172327929417
6.825,7.123754005886192,4.121600635010089
6.85,7.505001516427915,4.371589963402972
6.875,7.6928910512739455,4.396373468512279
6.9,7.790522264502316,4.266299221671605
6.925,7.851766348153651,4.080962812551904
6.95,7.88643866676968,3.8838927356154658
6.975,7.896494083890822,3.676446138695044
7.0,7.900705403352398,3.4405626667534936
7.025,7.936537093741252,3.1603053358163002
7.05,8.0275368818155,2.8230856610332062
7.075,8.15101498524389,2.425381685230738
7.1,8.270446813162845,1.9592066526514358
7.125,8.374927018176765,1.39561463158535
7.15,8.455876713964482,0.7254304290509708
7.175,8.481690005965952,-0.016350758718517138
7.2,8.434537360760897,-0.7802096760438577
7.225,8.338991141991785,-1.519366496295513
7.25,8.230745372166654,-2.213429124711756
7.275,8.12601444424492,-2.8475125596008843
7.3,8.032215903176928,-3.40472355965388
7.325,7.958147232837862,-3.8770903748538905
7.35,7.909808990820408,-4.257136893455371
7.375,7.88698539529837,-4.531621513054862
7.4,7.891326921707776,-4.696984297354537
7.425,7.88420676904184,-4.723022674401091
7.45,7.8805406107533065,-4.7352469577525005
7.475,7.9981345137208155,-4.534637697521187
7.5,8.03241543934314,-4.230569255060627
7.525,8.05249057053582,-3.8125728262151113
7.55,8.03919088722231,-3.315704253332747
7.575,8.000537170186071,-2.7843129640143873
7.6,7.959711586521865,-2.2560054426358307
7.625,7.897344846439361,-1.749705834375339
7.65,7.779886354873647,-1.2798561895461074
7.675,7.620437251803634,-0.8637843100999949
7.7,7.456564581965215,-0.49978355043668166
7.725,7.303743855867434,-0.17708572466604505
7.75,7.173745251445725,0.10065500345775787
7.775,7.034759541241412,0.2789463555564233
7.8,6.980528971477526,0.5143229366690166
7.825,6.9307453459059305,0.7216699589357853
7.85,6.866015616742206,0.9061853114138254
7.875,6.771282973574859,1.0657220385295476
7.9,6.646442747232211,1.196148657420915
7.925,6.522824073164672,1.3106107242237903
7.95,6.437871910937831,1.4262113892255655
7.975,6.38984775872531,1.5367731891064051
8.0,6.34602397301055,1.6217901374687713
8.025,6.284242705502861,1.679447099404259
8.05,6.203714582462292,1.7324040418999025
8.075,6.118693115055058,1.7967252015388888
8.1,6.041127780417783,1.869626183589316
8.125,5.966670421899726,1.940683380702802
8.15,5.893115829441395,2.004501892837416
8.175,5.8236393438364855,2.06678230975736
8.2,5.754410387497405,2.1267603062819287
8.225,5.680398272943756,2.175317647338539
8.25,5.604079122797067,2.216131448665134
8.275,5.536022773603954,2.2584062495998953
8.3,5.484187396728602,2.2996894831801886
8.325,5.4445209077049705,2.330478756751677
8.35,5.408123364421889,2.3471571712703327
8.375,5.376875567392548,2.3555857959870403
8.4,5.355877972917725,2.369530054734648
8.425,5.338329784737682,2.396088483926597
8.45,5.319281576453585,2.4259654951464658
8.475,5.300922678729305,2.450245290653554
8.5,5.282552890833379,2.465167867476869
8.525,5.268991358403598,2.4642916693489627
8.55,5.2741424093775295,2.450954329368668
8.575,5.298018097767091,2.433975719397641
8.6,5.32388832291999,2.413586551006063
8.625,5.340839659453464,2.3890509393277792
8.65,5.349064375921,2.3657621507399367
8.675,5.3500220173972695,2.349107913932325
8.7,5.349762771433527,2.338963017246784
8.725,5.3539840454746255,2.33471329105407
8.75,5.360437723279428,2.3350981884876436
8.775,5.367981995948242,2.3346254275536342
8.8,5.380830649296704,2.327303885041193
8.825,5.400990485689922,2.3157633954617567
8.85,5.424820985057174,2.307050983911307
8.875,5.446667054502762,2.3002047203428373
8.9,5.468602348734517,2.285406766216706
8.925,5.494939489451205,2.257065657018073
8.95,5.524300923186481,2.222942997534511
8.975,5.553802819143405,2.1932906266379004
9.0,5.585592953616412,2.174090896247609
9.025,5.624170259459347,2.1657760139825113
9.05,5.673078432417558,2.1655515994942194
9.075,5.73293456307728,2.168596416391354
9.1,5.800901961629277,2.1623865193181704
9.125,5.870989262481867,2.1372956735909416
9.15,5.939356618554362,2.0919615473510484
9.175,6.005984811138362,2.0302926899372276
9.2,6.084104716772697,1.9603558602807056
9.225,6.193224345997763,1.8837303373583314
9.25,6.3307931770971955,1.7775924681165405
9.275,6.44706019293454,1.5239444175760255
9.3,6.6166391265142455,1.301812001049758
9.325,6.819772285962536,1.0298260086366258
9.35,7.0426457570924335,0.7061624602932647
9.375,7.277841470166348,0.3247667991986446
9.4,7.542914513691332,-0.13560740926647546
9.425,7.8340893275347385,-0.7189339269035204
9.45,8.091149915438807,-1.4591265993502816
9.475,8.22279503550135,-2.326310552254528
9.5,8.134218451976563,-3.220796939607725
9.525,7.677521569952289,-3.9681336945569994
9.55,6.713044507158286,-4.3128305772769755
9.575,5.331354700276463,-4.049446256341264
9.6,3.8029583862000718,-3.198943707794081
9.625,2.258322824645563,-1.9395174663701795
9.65,0.6919742177312804,-0.5166301481181526
9.675,-0.9191700843161601,0.7728799426395722
9.7,-2.4599650583643005,1.7103740387876594
9.725,-3.4818595455219015,2.2078493767072755
9.75,-3.4735142935427814,2.1715142042714564
9.775,-2.3829899895528737,1.6874160120197619
9.8,-0.6406397879951337,1.2424820586251564
9.825,1.2582518993057956,1.1927769721219208
9.85,2.81327856140125,1.5055182222219272
9.875,3.7664395222721025,2.040267157617962
9.9,4.2983206380868175,2.5759723967231998
9.925,4.65634463930414,2.9948077335847727
9.95,4.909750554046734,3.3403631474387416
9.975,5.2289026428439005,3.602215151878417
10.0,5.4738906291222795,3.7889186802761934
10.025,5.640101555419506,3.9219618667184384
10.05,5.77886594356754,4.043500322424742
10.075,5.979441371294244,4.18779524843992
10.1,6.242866678195117,4.357349722959207
10.125,6.479795029986158,4.537207397916466
10.15,6.6475623953352265,4.721061665980309
10.175,6.801314592149875,5.003055323232478
10.2,6.967013477004403,5.244957703794835
10.225,7.152193065825835,5.513258217291298
10.25,7.348152252648996,5.859193753810225
10.275,7.545246954107509,6.306656555845172
10.3,7.723018114863237,6.862150440595481
10.325,7.854772277063446,7.533555272738344
10.35,7.940186178207919,8.320645860353913
10.375,7.999874783399292,9.215276471275297
10.4,8.021799509933725,10.211267625096431
10.425,7.970927571690486,11.253140744677662
10.45,7.9020724813130325,12.238329647739924
10.475,7.906701792403812,13.090053857300074
10.5,7.9630095797489995,13.71270690461732
10.525,8.1567445296118,14.14577680951505
10.55,8.446882261414482,14.325286093223372
10.575,8.80901327018124,14.375224228073824
10.6,9.141108869320755,14.317693354533118
10.625,9.367670847306583,14.109602828607791
10.65,9.559422886334097,13.851522420482475
10.675,9.64602692493496,13.543455259469148
10.7,9.733660166754259,13.202697562103342
10.725,9.823726211218032,12.753587156778172
10.75,10.008666106104341,12.304090736741896
10.775,10.189311151128347,11.754184154729804
10.8,10.353932890565856,10.944008363232287
10.825,10.473750061419723,10.081568390134947
10.85,10.539338578956688,9.15227379784257
10.875,10.531072056958768,8.242690166939315
10.9,10.438492453148225,7.379102227099335
10.925,10.273655849506273,6.499467295702095
10.95,10.072848406217703,5.551764554722333
10.975,9.840865529321682,4.541869184233255
11.0,9.586945746723519,3.471330325226401
11.025,9.409464795260535,2.270212994677438
11.05,9.388950185517178,0.8616898253296081
11.075,9.375146778959254,-0.6909911647869197
11.1,9.04428824264616,-2.1085964479493824
11.125,8.247088945265135,-2.9328168674526722
11.15,7.046364494564936,-2.680988721824601
11.175,5.363058032834843,-0.9853359678509466
11.2,3.0414746340900045,2.3314889948813047
11.225,0.3775312067594599,6.82786254189083
11.25,-1.8205629024433037,11.556331842992847
11.275,-2.8248057997289133,15.871532886703688
11.3,-2.394539360233685,19.05884495430352
11.325,-0.7532995069942511,20.702239618307747
11.35,1.6672094673436106,21.11202278129208
11.375,4.376966597486558,20.676330261767234
11.4,6.918673841840119,19.576238155563807
11.425,9.000452603168116,17.91664062404771
11.45,10.542961092626186,15.831470232989128
