Time [s],Flexion(+)/extension(-)
0.0,3.1961147878510006
0.025,3.194867293415725
0.05,3.2064699589991528
0.075,3.2126215901864863
0.1,3.211211222754843
0.125,3.2306510631834002
0.15,3.276377493027263
0.175,3.323559954002299
0.2,3.3430665419511834
0.225,3.34694653634139
0.25,3.355957967682201
0.275,3.3674212715862746
0.3,3.3576847189898693
0.325,3.326875210950437
0.35,3.295512920376152
0.375,3.2757272686150145
0.4,3.262651508047694
0.425,3.2410400343845964
0.45,3.21951948832473
0.475,3.21101491501527
0.5,3.2241275527351765
0.525,3.2670337079185363
0.55,3.3501412961230757
0.575,3.4881524417466023
0.6,3.6849088043862412
0.625,3.931853054126827
0.65,4.223794569972015
0.675,4.56335817699354
0.7,4.952559585677353
0.725,5.383472098037328
0.75,5.837718831166069
0.775,6.2939028440419635
0.8,6.7395879642486785
0.825,7.17387167215502
0.85,7.645416406721553
0.875,8.290133237903744
0.9,9.35023534086379
0.925,11.046692065023645
0.95,13.423698418117713
0.975,16.43998079533904
1.0,20.13121636316844
1.025,24.23229480480467
1.05,27.491136105411748
1.075,28.31682160468437
1.1,26.65804488146427
1.125,24.313959605642488
1.15,22.75749714771138
1.175,21.89972745193202
1.2,21.172673026139098
1.225,20.567469281504216
1.25,20.117210700267083
1.275,19.506668408403556
1.3,18.640059485674445
1.325,17.691911581044884
1.35,16.69648530089364
1.375,15.68902973850562
1.4,14.835699227052082
1.425,14.247009034382502
1.45,13.896206625819278
1.475,13.71523697440049
1.5,13.626055767167
1.525,13.514893773131815
1.55,13.313804893320933
1.575,12.97558020508437
1.6,12.449190798848237
1.625,11.756023238889604
1.65,10.905032150410461
1.675,9.857684361794929
1.7,8.617223260879058
1.725,7.239950501751833
1.75,5.761320089084259
1.775,4.158436025309819
1.8,2.3421285644748
1.825,0.3039423952966452
1.85,-1.717916138892914
1.875,-3.3622540329722415
1.9,-4.361055192057732
1.925,-4.550755501214394
1.95,-3.706643004048828
1.975,-1.5899859021782077
2.0,1.805241411277051
2.025,6.070594487685084
2.05,10.543529394818279
2.075,14.529263167780982
2.1,17.756849973926148
2.125,20.248834579293153
2.15,21.831731673490573
2.175,22.21199111968171
2.2,21.330993207313508
2.225,19.57140230547919
2.25,17.38557607287798
2.275,14.92007482122335
2.3,12.31196534389962
2.325,9.803761586303256
2.35,7.588385260942891
2.375,5.7789330126281575
2.4,4.644768016421006
2.425,4.455081758034254
2.45,5.203044163175027
2.475,6.504674955203169
2.5,7.892947799026556
2.525,9.422480334383708
2.55,11.408139496506733
2.575,13.724140681293992
2.6,15.98831594034377
2.625,18.05516202728159
2.65,19.74677046614201
2.675,20.679129096688555
2.7,20.80260784935063
2.725,20.600954513857737
2.75,20.69428631721626
2.775,21.29681757303733
2.8,22.06715345326506
2.825,22.35853189524699
2.85,21.996110081932116
2.875,21.393876693211638
2.9,21.037406775415313
2.925,21.09986545610339
2.95,21.46167259540122
2.975,21.92194022878858
3.0,22.46887251208534
3.025,23.203912316319208
3.05,24.195165263002703
3.075,25.432026877249527
3.1,26.82399713865084
3.125,28.321403542560912
3.15,29.89342011648776
3.175,31.405750846786216
3.2,32.627904940770016
3.225,33.385570736091616
3.25,33.22964514283852
3.275,31.353760457903693
3.3,27.473462222853428
3.325,22.309904742009902
3.35,17.11778385788759
3.375,12.88318641036637
3.4,9.842471404195086
3.425,7.790739099680301
3.45,6.779976721713545
3.475,6.979029196655681
3.5,8.01431562100299
3.525,8.75293999545806
3.55,8.935344108027788
3.575,8.858029865349614
3.6,8.95183409255735
3.625,9.336515083065196
3.65,9.62154003093783
3.675,9.735263648592536
3.7,9.57062524671672
3.725,9.086557659362583
3.75,8.535525260196282
3.775,8.170590419320503
3.8,8.049110522538875
3.825,8.135337065041167
3.85,8.380814867033035
3.875,8.633701965010395
3.9,8.778810705360495
3.925,8.803313563079797
3.95,8.741874076634797
3.975,8.657234045417162
4.0,8.618235532589111
4.025,8.669427123740522
4.05,8.79560557721103
4.075,8.932682573010519
4.1,9.029369470730082
4.125,9.081059191983096
4.15,9.099642717766008
4.175,9.074898980870213
4.2,9.001803802660374
4.225,8.900147285364838
4.25,8.791531481049779
4.275,8.683554342010302
4.3,8.568153648853452
4.325,8.441098224883056
4.35,8.318668713181323
4.375,8.242608993205748
4.4,8.25447445618001
4.425,8.37065917946413
4.45,8.574762092131285
4.475,8.833470061566713
4.5,9.117395798903521
4.525,9.39861017939065
4.55,9.644405683283543
4.575,9.833286196031478
4.6,9.96655016424347
4.625,10.050616688403515
4.65,10.085611607173332
4.675,10.079309050853098
4.7,10.04603594708125
4.725,9.98943660921841
4.75,9.914761723043542
4.775,9.837588697405762
4.8,9.77181337518119
4.825,9.72084357954682
4.85,9.683611015692257
4.875,9.665203207819738
4.9,9.667720223530631
4.925,9.686856096624442
4.95,9.71606495167227
4.975,9.751787153895673
5.0,9.791168834850799
5.025,9.829638593701894
5.05,9.86716938180093
5.075,9.907027480149122
5.1,9.948700728231854
5.125,9.990231239877753
5.15,10.028730957134332
5.175,10.060384005859952
5.2,10.082346945330364
5.225,10.091006830639282
5.25,10.08599964820335
5.275,10.072914830173202
5.3,10.06077363788677
5.325,10.055049922400725
5.35,10.05804621307523
5.375,10.061892166930548
5.4,10.059478072847774
5.425,10.057942208164475
5.45,10.064590788240091
5.475,10.079962030774439
5.5,10.106038565896847
5.525,10.144677783036293
5.55,10.190738301229091
5.575,10.237214116325797
5.6,10.287188559337372
5.625,10.342175547565835
5.65,10.389248617458025
5.675,10.417006339759658
5.7,10.42871272139014
5.725,10.430435573437784
5.75,10.424568447148145
5.775,10.415936965019174
5.8,10.40945671879785
5.825,10.405999860677719
5.85,10.400198059022506
5.875,10.38065840575678
5.9,10.33630730406933
5.925,10.2619962312063
5.95,10.16594890857985
5.975,10.07071867340167
6.0,10.008235570315229
6.025,10.003684633895196
6.05,10.05761853873409
6.075,10.149449996380122
6.1,10.250298980810047
6.125,10.33912820674228
6.15,10.455419263256545
6.175,10.67222784846665
6.2,10.994497389767927
6.225,11.343898055259574
6.25,11.634119356907311
6.275,11.822452866719143
6.3,11.901126999169382
6.325,11.888506065633981
6.35,11.792612802905966
6.375,11.570414497496635
6.4,11.174122189863802
6.425,10.651696804344777
6.45,10.149183988577851
6.475,9.788974559771988
6.5,9.630778606393882
6.525,9.69277091554891
6.55,9.926245839878296
6.575,10.220138684653618
6.6,10.496996127001117
6.625,10.800292676866295
6.65,11.23514686383314
6.675,11.841109401106547
6.7,12.513959899248349
6.725,13.103809519804063
6.75,13.532082575598842
6.775,13.801637172919515
6.8,13.938258508505738
6.825,13.958774384102567
6.85,13.822905100605173
6.875,13.503768507637492
6.9,13.103768217611234
6.925,12.734992117783456
6.95,12.42257217803118
6.975,12.121102197283241
7.0,11.776699224831471
7.025,11.361535182198015
7.05,10.869172107404635
7.075,10.335834679378202
7.1,9.806689641807585
7.125,9.317669452799349
7.15,8.908781565998838
7.175,8.614593931561398
7.2,8.426297072161761
7.225,8.283512601954975
7.25,8.117436102300086
7.275,7.923670704603296
7.3,7.74708473044128
7.325,7.629411063377401
7.35,7.586862786540281
7.375,7.62648408656559
7.4,7.741626254222459
7.425,7.909243752747433
7.45,8.11113809038618
7.475,8.35605957779883
7.5,8.6700938822218
7.525,9.063206214952725
7.55,9.515521925755424
7.575,9.971859164181868
7.6,10.374620401205968
7.625,10.715688718724346
7.65,11.006968669963335
7.675,11.234113523613225
7.7,11.380425849086707
7.725,11.447946209949901
7.75,11.4361124419423
7.775,11.358415632371255
7.8,11.262365105510996
7.825,11.202641540692488
7.85,11.208626295996286
7.875,11.272570440898132
7.9,11.368501081228406
7.925,11.458727891773004
7.95,11.498384305636515
7.975,11.47971084408114
8.0,11.43882584520817
8.025,11.413899783320707
8.05,11.426463589447618
8.075,11.474479167392218
8.1,11.540437398535214
8.125,11.609011798012856
8.15,11.670391027795537
8.175,11.732024551748193
8.2,11.807043614770963
8.225,11.888872527865011
8.25,11.960984949387377
8.275,12.018893114313538
8.3,12.063639580379409
8.325,12.086111416018882
8.35,12.068829692750734
8.375,12.013146016968852
8.4,11.94868299337794
8.425,11.90271973216067
8.45,11.874482016906434
8.475,11.85282659298161
8.5,11.829560210127415
8.525,11.79035666411859
8.55,11.720595250946555
8.575,11.622022242807422
8.6,11.513449195020339
8.625,11.420920147306864
8.65,11.36277855234486
8.675,11.340591370242622
8.7,11.340011326100564
8.725,11.34694172818613
8.75,11.35414544710805
8.775,11.353721289429313
8.8,11.342642307341468
8.825,11.329038328650498
8.85,11.319756998532863
8.875,11.309571687531822
8.9,11.290626600856829
8.925,11.271463681654089
8.95,11.269564710585687
8.975,11.285733345795608
9.0,11.300503575155826
9.025,11.296573329097152
9.05,11.273293702080101
9.075,11.237817633746015
9.1,11.190353079401094
9.125,11.137183778293963
9.15,11.084487828798613
9.175,11.02645933410695
9.2,10.952968579652119
9.225,10.850231759622144
9.25,10.699387757663104
9.275,10.478134782213006
9.3,10.170730314440888
9.325,9.776599521858573
9.35,9.312259259344504
9.375,8.78836791791544
9.4,8.214315728866815
9.425,7.614199040278098
9.45,7.012860486012353
9.475,6.4543854545253465
9.5,6.0353797345883535
9.525,5.935554943799934
9.55,6.3331209884999655
9.575,7.165743277226647
9.6,8.139999825992595
9.625,9.09023269528559
9.65,10.07761042119449
9.675,11.249975557362454
9.7,12.681704092291225
9.725,14.226715094336383
9.75,15.531432676430851
9.775,16.32254805394782
9.8,16.653525218217453
9.825,16.778691430828918
9.85,17.009095931939108
9.875,17.483132282148166
9.9,18.03237203240588
9.925,18.45581950522967
9.95,18.741181185303038
9.975,18.91386190501417
10.0,18.953843588704753
10.025,18.84850675516737
10.05,18.63889922747194
10.075,18.42741600438498
10.1,18.301710868480345
10.125,18.288727553521888
10.15,18.366614578649074
10.175,18.465670511693798
10.2,18.509425751221634
10.225,18.439318612307048
10.25,18.26519123684599
10.275,18.121591128550005
10.3,18.216860895880878
10.325,18.7285175970312
10.35,19.702584357053848
10.375,21.013228662515605
10.4,22.487299310671265
10.425,24.018112783782968
10.45,25.49550462504611
10.475,26.790998388473902
10.5,27.728270705353026
10.525,28.114618228341058
10.55,27.915150320377464
10.575,27.344874132362357
10.6,26.647304988028388
10.625,25.946643104475676
10.65,25.259771073472383
10.675,24.51455755822847
10.7,23.571232876084885
10.725,22.324180620236156
10.75,20.835913487482806
10.775,19.25237662854448
10.8,17.678123741740727
10.825,16.150436519148876
10.85,14.641799304665579
10.875,13.104224708340167
10.9,11.495858752650623
10.925,9.835867985346018
10.95,8.208111728142214
10.975,6.66407995055104
11.0,5.119510229321176
11.025,3.368360995670785
11.05,1.2621616661665616
11.075,-1.063681571673714
11.1,-3.191403166279106
11.125,-4.710520358448475
11.15,-5.3648900871721175
11.175,-4.784417526569257
11.2,-2.452432296721914
11.225,1.8107254522110687
11.25,7.768838953253294
11.275,14.904978684474651
11.3,22.284280925112718
11.325,29.031393699949497
11.35,34.618579697727064
11.375,38.73806399223692
11.4,41.16271094608048
11.425,41.70386206180053
11.45,40.38804469795384
11.475,37.61575803398285
11.5,33.92270444022014
11.525,29.572416139879685
11.55,24.592921430347428
11.575,19.09028422381813
11.6,13.388783521901683
11.625,7.9920789781231205
11.65,3.4475955250233326
11.675,0.32300307995338307
11.7,-0.9890249755206006
11.725,-0.5288354983011038
11.75,1.2752564081077606
11.775,3.8173513018903757
11.8,6.645217050446682
11.825,9.570175359264287
11.85,12.482773153225175
11.875,15.423906816038516
11.9,17.79990644796976
11.925,18.623236696248405
11.95,18.242877309046396
11.975,17.437353940254052
12.0,16.443724393578304
12.025,15.652994003730228
12.05,15.322266549922489
12.075,15.110755622942222
12.1,14.763047015413886
12.125,14.29933871602146
12.15,13.977543521667045
12.175,13.992478325064623
12.2,14.218024626195355
12.225,14.467012311477797
12.25,14.69173915066976
12.275,14.989368614732797
12.3,15.456665231653078
12.325,16.170254007357578
12.35,17.303434070159817
12.375,19.03083382549848
12.4,21.39491538074335
12.425,24.369339007197652
12.45,27.788854786581258
12.475,31.348223205283144
12.5,35.11479780131629
12.525,39.52654031491156
12.55,44.084758117636454
12.575,48.04870287856409
12.6,50.93843371675714
12.625,52.368461416308755
12.65,52.26033870711772
12.675,50.47921738197712
12.7,46.81408379590421
12.725,41.32589637038964
12.75,34.25242158621787
12.775,25.993118448663104
12.8,17.35149632112423
12.825,9.079409503271831
12.85,1.63720357460411
12.875,-4.447036486376902
12.9,-8.437338992714006
12.925,-9.86763354181685
12.95,-9.037190375022075
12.975,-6.8916071894048585
13.0,-4.816645493689551
13.025,-3.512150324420276
13.05,-2.7313301559191547
13.075,-2.4600800046340225
13.1,-2.400767726053874
13.125,-2.646458873261687
13.15,-2.9518561748136443
13.175,-2.596509257651916
13.2,-2.123752001978829
13.225,-2.50333056180869
13.25,-2.7591412873775845
13.275,-1.7002957540825032
13.3,0.010073413562638044
13.325,1.4479094270977342
13.35,2.596593227517173
13.375,3.8215704224441223
13.4,5.186348123321167
13.425,6.445349150330819
13.45,7.451717615225806
13.475,8.31471392261423
13.5,9.171206281924812
13.525,10.10400762445729
13.55,11.20711758806327
13.575,12.596909484800854
13.6,14.332092136467208
13.625,16.494361415054808
13.65,19.309090339135853
13.675,22.912556926460642
13.7,27.135880888432236
13.725,31.662687199472728
13.75,36.15188044704703
13.775,40.56656806138326
13.8,45.20631842522116
13.825,49.702754673730354
13.85,53.21058879396827
13.875,55.0340958660721
13.9,54.9423435442749
13.925,53.262276977614505
13.95,50.34856180128128
13.975,45.997530422684946
14.0,39.875723892814484
14.025,32.24258087553219
14.05,23.902369787704945
14.075,15.639548623112299
14.1,8.025859955007471
14.125,1.7672072899054316
14.15,-2.3270794570923146
14.175,-3.8854515473699442
14.2,-3.294087886992854
14.225,-0.9203930504576645
14.25,2.8579165936266824
14.275,6.591842875618867
14.3,9.257002896502094
14.325,11.24837507953407
14.35,12.86134367176644
14.375,13.916700771644793
14.4,14.13835022340651
14.425,13.753481865388585
14.45,13.587502634906581
14.475,14.06377164283463
14.5,14.748853636755735
14.525,15.13434314961738
14.55,15.151156936688931
14.575,15.07721862834612
14.6,15.19100726152095
14.625,15.597848400242402
14.65,16.23486594928523
14.675,16.958818652955426
14.7,17.67263727618063
14.725,18.541460719288295
14.75,19.795230332016484
14.775,21.401944377572438
14.8,22.846149155204568
14.825,23.459173290372636
14.85,23.137680699320846
14.875,22.382290122568204
14.9,21.720240008150906
14.925,21.627224543409305
14.95,22.523243283443275
14.975,24.609311881507672
15.0,27.654808559619966
15.025,31.004318380751364
15.05,33.92036375912382
15.075,35.84610411779761
15.1,36.64322041538364
15.125,36.11485454715284
15.15,33.78135775977768
15.175,29.875991570425683
15.2,25.73691717733213
15.225,22.39004613640881
15.25,19.89050425709225
15.275,17.70453637357799
15.3,15.684145700229607
15.325,14.164752856431543
15.35,13.304274431373857
15.375,12.801134843908773
15.4,12.064725457054866
15.425,10.56064065553561
15.45,8.201311061417064
15.475,5.103884671538112
15.5,1.7406327189405082
15.525,-0.8391353688440182
15.55,-1.5200538626538715
15.575,0.37326339520450247
15.6,4.484762963190705
15.625,9.455389413640109
15.65,13.932919172224075
15.675,17.264255878375074
15.7,19.209990027943032
15.725,19.41857356679765
15.75,17.647004418446336
15.775,14.213631753806345
15.8,9.920933640681652
15.825,5.701829654111339
15.85,2.4020361164938504
15.875,0.33375280846362354
15.9,-1.0126404092130252
15.925,-2.1376258245969804
15.95,-2.9382644637404427
15.975,-3.2501018659269403
16.0,-3.1318913693639177
16.025,-2.683745283390775
16.05,-1.751714005424039
16.075,-0.22962738683989226
16.1,1.6510952465569164
16.125,3.604719032571556
16.15,5.610612271061476
16.175,7.911398338628464
16.2,10.46675844696143
16.225,12.992830970536964
16.25,15.336558722776742
16.275,17.271218200493497
16.3,18.508586895796864
16.325,19.166316049649396
16.35,19.64383268501876
16.375,20.12154132337526
16.4,20.53764655638875
16.425,20.824274861033945
16.45,21.06669014359656
16.475,21.44197464660951
16.5,22.00966319945813
16.525,22.491583608149746
16.55,22.38451264089355
16.575,21.391598816559988
16.6,19.488379143049528
16.625,16.746843885402132
16.65,13.312135195444295
16.675,9.711366955508751
16.7,7.365918202900643
16.725,8.476428324416842
16.75,13.607393155017032
16.775,20.713881115052832
16.8,27.938522088320326
16.825,34.94160619718322
16.85,41.176852362418245
16.875,45.24729180311357
16.9,45.48016587948359
16.925,41.74762328452704
16.95,36.34054524451339
16.975,31.8806911016175
17.0,29.2806600817435
17.025,27.71196538684856
17.05,25.795027428211704
17.075,24.453642799978354
17.1,25.45440954352452
17.125,27.888719219532568
17.15,30.41927942312465
17.175,32.46400023131863
17.2,33.306191666272575
17.225,32.736204984287255
17.25,31.412015898129525
17.275,29.416201270865674
17.3,26.553124107497574
17.325,22.755851934350847
17.35,18.136739486268386
17.375,13.628335143276761
17.4,10.779556234593395
17.425,10.484563423751966
17.45,13.462126371611461
17.475,19.304694588595417
17.5,25.722140502192786
17.525,30.289849923141396
17.55,31.823506854834566
17.575,30.753641302341432
17.6,28.788918594356442
17.625,27.71509921169494
17.65,27.598445201817945
17.675,27.19006306810291
17.7,25.934030869546525
17.725,24.588489819237267
17.75,24.66986097690683
17.775,26.507349977086843
17.8,29.411634048797882
17.825,32.71005995613348
17.85,35.390459490719394
17.875,36.51799154325613
17.9,36.12267108106525
17.925,35.06264177368863
17.95,34.70070100315614
17.975,36.3502889093532
18.0,40.03352725036997
18.025,44.33387595569
18.05,48.21551981000246
18.075,51.78349122850621
18.1,54.746258679706706
18.125,56.246905747618044
18.15,56.01674772285461
18.175,54.38975925532988
18.2,51.44464620630911
18.225,47.08819274857934
18.25,41.79050203372273
18.275,36.13681421570676
18.3,30.37597836593877
18.325,24.768282485656048
18.35,20.076399837247944
18.375,16.609354678023855
18.4,13.966600840408793
18.425,12.270046116908679
18.45,11.340185740187104
18.475,10.039641078971643
18.5,7.5148353526796114
18.525,4.665032827352515
18.55,2.8891737167228797
18.575,1.8642020607817555
18.6,0.6095424616006953
18.625,-0.8919887735727059
18.65,-2.0713501801613976
18.675,-2.863199094700836
18.7,-3.389142836488469
18.725,-3.5008851096335967
18.75,-3.1489628234437355
18.775,-2.4555007144404533
18.8,-1.447151955570188
18.825,-0.14873433438708328
18.85,1.285672943018172
18.875,2.710981427562016
18.9,4.0554798391289495
18.925,5.2294173926330405
18.95,6.172969066533973
18.975,6.954717595818192
19.0,7.665515791654459
19.025,8.327498410995002
19.05,8.941112277744985
19.075,9.554791796629758
19.1,10.205797477100786
19.125,10.84965409167685
19.15,11.41982444643416
19.175,11.903643948685549
19.2,12.287829664763043
19.225,12.552204251815692
19.25,12.73989214794427
19.275,12.949395759750185
19.3,13.299781984721832
19.325,13.867084725967072
19.35,14.54334928961539
19.375,15.148519101312983
19.4,15.65326793014443
19.425,16.18923710130128
19.45,16.970269604837615
19.475,18.311490673241025
19.5,20.223460011686168
19.525,22.536853434387755
19.55,25.158606357814218
19.575,26.97650806499364
19.6,27.842510664325648
19.625,28.681673385223583
19.65,29.458792116792832
19.675,29.49870889657287
19.7,28.78914496003222
