Time [s],Anterior(+)/posterior(-) tilt,Lateral tilt left(-)/right(+),Rotation left(+)/right(-)
0.0,-2.9533126296309615,0.7373363420241077,2.710789883990071
0.025,-2.9634413735498764,0.7408703106092488,2.700995308124642
0.05,-2.9817606966738506,0.745678401315862,2.6898644257545707
0.075,-3.0038145483467336,0.7548290799587881,2.6789526635621193
0.1,-3.0223908261702994,0.7731059729080934,2.6622127936083757
0.125,-3.0392991354622994,0.7964033458939052,2.642759445333028
0.15,-3.0680773502578824,0.8172242582217201,2.6312804707387523
0.175,-3.118186560781909,0.8403373384303044,2.6273791302187526
0.2,-3.176681190035078,0.8702272400246885,2.6291089366123424
0.225,-3.210253225377895,0.8990496628837433,2.635161034713993
0.25,-3.2208588864748045,0.9322024618908945,2.6330245302922792
0.275,-3.21629743311804,0.958968986700674,2.6404424716556267
0.3,-3.1990743591736264,0.9603984515198767,2.6766552403135684
0.325,-3.166283952379593,0.9526156351008841,2.7132395678868932
0.35,-3.127147962300175,0.9660027015512657,2.717323635301636
0.375,-3.083696635437107,1.0005333221137533,2.7011684453516787
0.4,-3.0205835696334296,1.0445943064045067,2.682133238041285
0.425,-2.9252096309752464,1.1019124879968336,2.6537442636335484
0.45,-2.786241272792946,1.1652355286435576,2.6190340644897376
0.475,-2.5701897141941337,1.2357555370124536,2.571865555444099
0.5,-2.2410608820344904,1.3387644012061126,2.4946294781357645
0.525,-1.8742993110828459,1.475625510214344,2.3955355063044026
0.55,-1.588057393592924,1.6304816592738967,2.2902334679002134
0.575,-1.36105545172614,1.7873215713662929,2.1883340530076296
0.6,-1.0752331522201994,1.9471120722780453,2.092800468773893
0.625,-0.5800979120515644,2.1035952039667922,1.9900939250515355
0.65,0.24352093328680482,2.229548067299402,1.8297980250647885
0.675,1.3779912510945016,2.31837922898217,1.5494625385191862
0.7,2.641622902267553,2.3830372995554416,1.141190511055146
0.725,3.8405240256705895,2.4478749703144764,0.6388147122373045
0.75,4.916477130941492,2.5160374894546766,0.0923653887224325
0.775,5.887436647754992,2.5688903301456234,-0.4536506712417608
0.8,6.792029484497559,2.5993233878976807,-0.9894821710259428
0.825,7.6505684186058405,2.587727238874531,-1.5179338835217107
0.85,8.438283237623516,2.5206270219956517,-2.0569311628948608
0.875,9.143351559140639,2.4240670757898135,-2.6514593995135387
0.9,9.781967653864967,2.3429781248422086,-3.3272336996964054
0.925,10.311193058671412,2.327288889059981,-4.07794017503603
0.95,10.682445222888585,2.3955301241456417,-4.859542653470676
0.975,11.019000931577867,2.520361821180984,-5.608717025339428
1.0,11.51464866879137,2.738466772487818,-6.342449921878237
1.025,12.226057114616628,3.1254504161220544,-7.12737343893594
1.05,13.059845216370432,3.547025965056813,-7.959060758568329
1.075,14.010468440167472,3.757335941443399,-8.872299323438725
1.1,15.076255309092268,3.59689098115217,-10.018561083938273
1.125,16.303604962296443,3.086595457006395,-11.540155980066736
1.15,17.73253171493315,2.484904983400245,-13.4215261421284
1.175,19.23292494685854,2.1311780111123455,-15.507968273052965
1.2,20.55167297587627,2.2222207937495573,-17.672586041353306
1.225,21.37979546404262,2.726312238915704,-19.814326867952428
1.25,21.764686077729777,3.4529812343503727,-21.819524066411734
1.275,22.076283233332642,4.117899403934564,-23.644511421414663
1.3,22.514638693753533,4.445732998816802,-25.37301738818295
1.325,23.073762275321844,4.405258429399378,-27.088069928618445
1.35,23.670028517019105,4.224827321982215,-28.836466248804122
1.375,24.21163941898055,4.145793202858181,-30.730315106453098
1.4,24.59837120396222,4.272934617906388,-32.82546771953788
1.425,24.76975199029777,4.596270809012747,-34.94707480803288
1.45,24.770404689706396,5.012766655372504,-36.85813624290293
1.475,24.71350289997654,5.404088718737224,-38.526132399646656
1.5,24.688051889484118,5.727363825795365,-40.09449045181903
1.525,24.69522831616563,5.989747123011379,-41.701246221791926
1.55,24.660766116486638,6.203221487485627,-43.41683982621257
1.575,24.574112142452982,6.399746399670577,-45.211726363814854
1.6,24.489335212741096,6.6418529904933905,-47.020708956947864
1.625,24.44667493568548,6.966347788419456,-48.835584184528095
1.65,24.458296217821072,7.3311074890845,-50.71135273236853
1.675,24.53775358289975,7.641865716441079,-52.67868794233111
1.7,24.76939467530432,7.871638709988672,-54.713801005387566
1.725,25.191787219484116,8.062944863849031,-56.807744085555896
1.75,25.758244901467418,8.28104467512317,-58.97390128063939
1.775,26.42767364140151,8.631317407123161,-61.21583114795807
1.8,27.126341965872903,9.213688604086704,-63.527576785096436
1.825,27.725991400457495,10.092721369717664,-65.90658721610897
1.85,28.100551537562474,11.331750852366515,-68.37253461371331
1.875,28.171057297009266,12.986345898072972,-70.96866417922755
1.9,27.987624420270503,15.04114717625615,-73.72541338601965
1.925,27.634762988657876,17.172891164356603,-76.5234086149998
1.95,27.24116899005775,18.9774843126483,-79.23629805726506
1.975,26.990724563251124,20.36066192386388,-81.8087023044759
2.0,26.90691479478633,21.40992248375768,-84.10620391340554
2.025,27.033611434968222,22.29022322164026,-85.96605128590778
2.05,27.42495622158946,23.266765757972877,-87.35438899398737
2.075,27.96861494639,24.427099160371398,-88.35999415210635
2.1,28.45081443587031,25.6056938728095,-89.06780195516242
2.125,28.568105627221183,26.59826863629107,-89.49476678751066
2.15,28.191093875538204,27.442319784493577,-89.65488791022017
2.175,27.55257567071696,28.361709345973516,-89.64314123623714
2.2,27.05084350786489,29.49436366602923,-89.58536974786294
2.225,26.833528999483505,30.711227930645677,-89.53817358247228
2.25,26.825223565603277,31.78540082966962,-89.50096892283689
2.275,27.026023453656762,32.627485584417926,-89.46901582178154
2.3,27.433895177511115,33.2125316520238,-89.45562496501935
2.325,27.952912589098013,33.503000601620236,-89.48692335338886
2.35,28.514755876882994,33.49517894024811,-89.60576749055606
2.375,29.10715650282648,33.292878136369,-89.86212899123369
2.4,29.687671980895377,33.015372213856615,-90.26312749082557
2.425,30.28442696760666,32.7371209183073,-90.74007580135911
2.45,30.922100652695963,32.378630571544036,-91.22584955757095
2.475,31.51855482988344,31.75693090724286,-91.7319612362532
2.5,32.05199038856359,30.828861955793034,-92.25178692765932
2.525,32.60278146094399,29.715720319879654,-92.68763996943667
2.55,33.21069426264831,28.481273134712882,-93.0185297392377
2.575,33.81691958730749,27.12858474485186,-93.35110940486346
2.6,34.520186949850334,25.8830063842236,-93.69382090170683
2.625,35.382396012578845,24.986083781281668,-93.94484223129997
2.65,36.22242910494278,24.468408823467414,-94.09683609387821
2.675,36.8257433438879,24.354630517072057,-94.25800507382661
2.7,37.105816263769874,24.697678946907875,-94.51694238632733
2.725,37.19286251538059,25.420450898232744,-94.88485442748907
2.75,37.3395165140694,26.367886642634534,-95.27179439004261
2.775,37.61756004308988,27.348919060435968,-95.5427253068904
2.8,37.892751534283455,28.07864987414626,-95.65114607216313
2.825,38.03474837924621,28.303084699155892,-95.59540403880389
2.85,38.1383715456476,27.998110199965573,-95.29373860893637
2.875,38.464019107415375,27.423292045926747,-94.67808797510149
2.9,39.06712853380068,26.840446571412095,-93.76127168935052
2.925,39.779465363350205,26.385464638759146,-92.56032564538702
2.95,40.35317190187373,26.122389297142153,-91.07736064730999
2.975,40.614839036245954,26.02696422295017,-89.35291697865827
3.0,40.563653674819335,26.111555369171914,-87.43794388853497
3.025,40.35004294911372,26.49068949339316,-85.34861206892631
3.05,40.04151506263446,27.32933958248767,-83.1277605062757
3.075,39.56981157060989,28.735117857354147,-80.8462285842931
3.1,39.03791502115944,30.750963117492322,-78.61723701717273
3.125,38.66880023850483,33.36790937381909,-76.59177164848892
3.15,38.660767841657986,36.46090333647606,-74.75489442504806
3.175,39.23617065752187,39.79986527973641,-72.94503879205283
3.2,40.535201205075026,42.98050887767774,-71.05641011656877
3.225,42.48143854546711,45.59747875046268,-69.11854083653131
3.25,45.08790351666501,47.71566214038327,-67.1915929322316
3.275,48.457084219608525,49.79869269680255,-65.33437710851358
3.3,52.4657893548191,52.325631517512534,-63.70841361315883
3.325,56.793039984791655,55.501457940496735,-62.41116823771707
3.35,60.97878783208659,59.10312997141704,-61.39733216522733
3.375,64.6911648043707,62.78474441663399,-60.619068727603945
3.4,68.11150402665653,66.40417104193405,-60.002015477078444
3.425,71.83491372268924,70.0892000256601,-59.324319299059
3.45,76.1551673419992,73.88019643876139,-58.40089562934854
3.475,80.66278682693424,77.40373516584313,-57.08960291916138
3.5,85.17299673006954,80.58833432706686,-55.16819732130757
3.525,89.77820541718745,83.68211780390034,-52.72662347873479
3.55,93.94588160721335,86.57001414962643,-50.3840389555149
3.575,96.95455281891788,88.89038191016344,-48.73729825220434
3.6,98.97626485840658,90.78862510421776,-47.77157896478785
3.625,100.34647552080455,92.43407822886962,-47.05921229247035
3.65,101.10886713941105,93.74500021582884,-46.0617814669889
3.675,101.68201266953305,94.86595265594897,-44.29377728179791
3.7,102.60223998892928,96.05086734983331,-41.53502113602791
3.725,103.80997999527648,97.04331082681948,-38.49305029487836
3.75,104.81863748509946,97.44606811837527,-36.0788675256861
3.775,105.4811032598292,97.4248322782634,-34.044286034580736
3.8,105.91846126632704,97.31005732998716,-31.877281707651523
3.825,106.27894888863128,97.19852375271117,-29.963288973249643
3.85,106.7254299046467,97.16695696600291,-28.779541397649215
3.875,107.31878504777053,97.33299012132751,-28.289125836985352
3.9,108.0412122318904,97.71915062380675,-28.322351159942485
3.925,108.79829522616897,98.16264336392199,-28.650380944192285
3.95,109.56592958467452,98.49083895138526,-29.02282673543752
3.975,110.36761888790546,98.64626561912706,-29.387751049907735
4.0,111.1018876209232,98.64232868247694,-29.832166136245146
4.025,111.65804039019011,98.58773996674616,-30.41177057266613
4.05,112.06697145213725,98.63827508660655,-31.02633339734516
4.075,112.44671121912889,98.83901112520161,-31.43530376311324
4.1,112.92741299652282,99.11382770818696,-31.479353324685558
4.125,113.39117063459626,99.24167817456487,-31.183030761115607
4.15,113.5705665769749,99.03331258657042,-30.779112195393033
4.175,113.65842075614927,98.7856545427151,-30.41023006076116
4.2,113.78610343805471,98.69398696773517,-30.033785772791113
4.225,113.87976520300708,98.63861448417829,-29.614712637299277
4.25,113.89305029382551,98.49185089377234,-29.059069633840434
4.275,113.89208536907391,98.25955595105276,-28.33350580746875
4.3,113.93965590280271,97.95393167277525,-27.6251434389509
4.325,114.03774090973397,97.62258797835459,-27.17012061930386
4.35,114.12739906316398,97.35047968785241,-27.107269300111234
4.375,114.18110622074046,97.22189859489536,-27.454015590160825
4.4,114.19750213598684,97.26245756086097,-28.004333541777807
4.425,114.16064866554959,97.40418345713407,-28.48696074570957
4.45,114.09592522343594,97.58596556017935,-28.817380512192504
4.475,114.01456750888718,97.76565265864026,-29.011895345950855
4.5,113.9473578019541,97.95388129952146,-29.061509853018233
4.525,113.88633197306812,98.15929211866471,-29.011261343300543
4.55,113.81146491484593,98.38922908057773,-28.937328727746845
4.575,113.7348739735111,98.6841795350444,-28.790176077427823
4.6,113.655100127629,99.02894135384832,-28.538460294503633
4.625,113.55206584927673,99.3465210667647,-28.228909896066696
4.65,113.40615988994674,99.58495926033721,-27.881355300083666
4.675,113.26885709008495,99.78716851101413,-27.53727496169484
4.7,113.16611975249181,99.9853743204076,-27.272622999787348
4.725,113.05736808323303,100.15636510318943,-27.129684933947402
4.75,112.99552652644029,100.36713528933781,-27.145369379792843
4.775,113.06241713516141,100.69187711774171,-27.288707580150216
4.8,113.21478655057348,101.06561768856965,-27.43402545304742
4.825,113.3103657340225,101.34898692170495,-27.51578636564582
4.85,113.3300013099752,101.5423105507216,-27.624126290225732
4.875,113.33985993262777,101.73216858760678,-27.835698184185404
4.9,113.30915630543653,101.89851424160723,-28.14450974418977
4.925,113.21377747512142,101.99393443790453,-28.486882807017885
4.95,113.09234531936627,102.02087800402808,-28.76175682111
4.975,112.96931214100506,102.00672961041512,-28.87341620314507
5.0,112.81707082953396,101.96512497853756,-28.830861798977715
5.025,112.68587133576189,101.9501984803833,-28.79528231704585
5.05,112.62681623424584,102.00987639832654,-28.849699739906498
5.075,112.59511120240916,102.1234986938856,-28.930691734990774
5.1,112.56771006542388,102.26956883019866,-28.958555892561296
5.125,112.51334179563342,102.38998193680408,-28.92898800041265
5.15,112.45298265942138,102.45347189781843,-28.862127321037722
5.175,112.41425257769276,102.45840268700637,-28.85073547746682
5.2,112.42358945608807,102.45922354299822,-28.963228977502485
5.225,112.47232760087982,102.50739023238629,-29.17003286057154
5.25,112.50735752702658,102.59252894562275,-29.38383319537434
5.275,112.50158773036404,102.68614224948185,-29.508668528201213
5.3,112.46169517329888,102.75609002459723,-29.52403906389098
5.325,112.40068440184112,102.78264376846911,-29.464463400682277
5.35,112.332766246857,102.78315502363867,-29.318859479540517
5.375,112.27588843260928,102.79570090123434,-29.088263674672522
5.4,112.2572395027806,102.8546261834303,-28.844311306884485
5.425,112.24917083595999,102.93379127688404,-28.61519296024624
5.45,112.22252192614845,102.9988744665135,-28.350473476366215
5.475,112.18940144509119,103.05206380887981,-28.065213475607614
5.5,112.17320044750184,103.10520708986488,-27.829430957818783
5.525,112.18813488944575,103.16906600904392,-27.704656771144023
5.55,112.22934941249348,103.25095453225948,-27.668619341535766
5.575,112.2833365037609,103.3612626073009,-27.630469115265328
5.6,112.35415804658388,103.51198337372267,-27.537841768540318
5.625,112.40846635341184,103.66796415580491,-27.382962637442034
5.65,112.44067635680867,103.79812417961342,-27.251069884453944
5.675,112.47562241469295,103.89131330224726,-27.20506193988803
5.7,112.49848352128252,103.93074181566179,-27.179296164285418
5.725,112.51252319389727,103.93425948777454,-27.12674330139252
5.75,112.5282612460947,103.9429214978059,-27.079874989032223
5.775,112.55671067879798,103.99528653319683,-27.026214758731523
5.8,112.58361492753156,104.08399182299402,-26.95167952328026
5.825,112.58762737504858,104.17380825042314,-26.86276423347534
5.85,112.5909831855448,104.26048675680032,-26.74846920465717
5.875,112.60427280215124,104.33136132043019,-26.639475804381256
5.9,112.61674570181232,104.37483829390996,-26.59742140386176
5.925,112.62247053615471,104.39889404694381,-26.64260777962625
5.95,112.62285976733759,104.41981618520536,-26.695713686085035
5.975,112.56529603353137,104.42967890189243,-26.521580450275366
6.0,112.35453177858703,104.36694574548406,-26.023722327982366
6.025,111.99553395165853,104.15384297543488,-25.767243015413296
6.05,111.5327560791212,103.78390543822366,-26.351825702696722
6.075,111.15205549739888,103.44858742375446,-27.574909955929016
6.1,110.80105063454596,103.09362378050302,-28.96119564095897
6.125,110.30648998186078,102.49871013280348,-30.362610593843588
6.15,109.6416007019908,101.6331492943203,-31.890620099541778
6.175,108.91874829693779,100.67576859037753,-33.62006077405084
6.2,108.11990518924118,99.72604970384043,-35.520878018804275
6.225,107.14106189612004,98.75797343856199,-37.44414677554616
6.25,106.00429113731714,97.76035955836976,-39.23266376588899
6.275,104.8265874279065,96.78046194176403,-40.86741714567453
6.3,103.71020973657532,95.87828616013081,-42.34283636177107
6.325,102.70141597372768,95.09064497772322,-43.58591024736123
6.35,101.78896101754916,94.41314016169932,-44.70969247681566
6.375,100.88288178894511,93.80297754193025,-45.78294665830782
6.4,99.85806894356327,93.22314497116444,-46.54465622868672
6.425,98.81576585691232,92.77818711939732,-46.834092081942856
6.45,98.03478218346481,92.62613314407807,-46.78369226121401
6.475,97.54513411863262,92.77055789640613,-46.52830337002617
6.5,97.08291815616921,93.03385638412142,-46.187035877918255
6.525,96.22065755621286,93.08229218893004,-45.84358618328017
6.55,94.75369149542117,92.74292771555258,-45.60558783754884
6.575,93.00889969984567,92.09292798762225,-45.787011617081916
6.6,91.63892694150594,91.34207983618093,-45.82868316351681
6.625,90.97903170461778,90.50664904917691,-45.485370167778996
6.65,90.75754030051745,89.54363539391355,-45.36017858868276
6.675,90.67347974621715,88.72565603521298,-45.57372051655319
6.7,90.65655823844017,88.30466309810234,-45.91512176225968
6.725,90.89157730112305,88.31806090718126,-46.380709086435324
6.75,91.4693784085019,88.61252130446496,-46.77671861053342
6.775,92.27072245506201,89.00031777968823,-46.99184845095568
6.8,93.29223872117183,89.56119829590352,-47.290003050782744
6.825,94.62885626581568,90.52244976378076,-47.813688788879666
6.85,96.23159918367782,91.98032077802068,-48.17962986761233
6.875,97.94931810748598,93.77356238831132,-48.064907232156735
6.9,99.69084554545297,95.54919387642964,-47.48744197729485
6.925,101.21076661539922,96.76176146898801,-46.74478184088791
6.95,102.37846234364103,97.2009421403071,-46.07189748962312
6.975,103.29053363108243,97.15671436079448,-45.41020387678311
7.0,104.22472947828486,97.07275582967587,-44.49190805029223
7.025,105.37902377175878,97.15107028265076,-43.30002020018103
7.05,106.82934006015564,97.4530473126473,-42.17370826610984
7.075,108.41508424616944,97.91071740785488,-41.36276089549862
7.1,109.81465297453633,98.33880007324181,-40.915164820208055
7.125,110.8130835284096,98.58823455251637,-40.85792598683532
7.15,111.36406437809839,98.61617190087539,-41.00739930666095
7.175,111.50446811382272,98.38629340023323,-40.978290694798936
7.2,111.41083096489045,97.93236026629206,-40.7018316378293
7.225,111.35745273306692,97.4309260321206,-40.506957457402976
7.25,111.41334663572388,97.00163341502773,-40.64473811696014
7.275,111.52404356003557,96.65345680591595,-41.1929162821827
7.3,111.7021186911168,96.37200701895692,-42.059966176737895
7.325,111.89471448287637,96.02943511103457,-42.90903873131011
7.35,112.0032708508554,95.38281388000185,-43.381147204040026
7.375,112.12691102796475,94.34197856580259,-43.56439997881668
7.4,112.42732296274808,93.04897795456081,-43.9879118844118
7.425,112.7656295735701,91.60448352195596,-44.9409922688251
7.45,112.97374472235914,90.18728638495573,-46.2053816780162
7.475,113.14290634367585,89.18761510902334,-47.60543726270962
7.5,113.43069080319952,88.90113644866679,-49.24408022043807
7.525,113.82821724072515,89.16511753102597,-51.092311287813324
7.55,114.19868184551315,89.46800615379769,-52.80491740287419
7.575,114.55309965093156,89.48264490493366,-54.11737999851207
7.6,115.02001974706432,89.35793911654893,-55.05932019969073
7.625,115.49513658734242,89.35404943159682,-55.80387110969266
7.65,115.79352191533789,89.61480326739067,-56.4287196882499
7.675,115.93126987042315,90.17147759602211,-56.80018924190066
7.7,115.94910705326238,90.70251310443437,-56.89134817903687
7.725,115.94842991832704,90.86338181551174,-56.812390040466866
7.75,115.9925330718199,90.55583943788922,-56.537013938464746
7.775,116.04624256491115,89.88783702751067,-56.0151711959345
7.8,116.08639653482251,89.17309865757665,-55.40113504190546
7.825,116.08185150515864,88.78881511868451,-54.998828504370074
7.85,116.07070111921396,89.03261608965936,-54.99091166711306
7.875,116.06146424908033,89.7540636929273,-55.352420067788465
7.9,116.00743902754152,90.43388185446103,-55.898997917664
7.925,115.85650705470223,90.66700441636253,-56.260618133556285
