Time [s],Flexion(-)/extension(+),Abduction(+)/adduction(-),Internal(-)/external(+) rotation
0.0,10.301815519036882,4.206578036958002,25.50389028480359
0.05,9.032300146964005,3.4774074524404677,23.55956369327241
0.1,7.672517894958688,2.760743640390625,21.202655585982523
0.15,7.092558829520471,2.5856010740604245,18.88220892917476
0.2,6.252696054966593,3.6450492245420865,17.367547379555575
0.25,5.430221654841394,5.253831306096334,14.429739634970137
0.3,4.922104555572164,6.698296282487109,11.245515613643954
0.35,4.3525148442902895,7.475579245635022,10.003471956674495
0.4,3.528997643625683,7.738909581981938,9.882343506300627
0.45,2.5483070293139507,7.969119656329132,8.699629130755811
0.5,1.779212324320474,8.26232897412102,6.4807775277757464
0.55,0.7735180253303415,8.24897767394719,5.504519843710241
0.6,0.4738241195492171,8.178902527540684,3.9373528900198047
0.65,0.9470650859133375,8.382754406646107,1.9252895654829785
0.7,1.0399922993252642,8.667008696900412,1.3540266721897705
0.75,1.3007807822488937,8.888530482681594,1.8534857870296209
0.8,2.224309895841707,9.094840274697882,2.60795669077678
0.85,3.4593154530384584,8.9355928253616,4.720490415308273
0.9,4.767844064424571,8.383517401561688,7.165952849029348
0.95,5.661826611002049,8.147712091146692,8.592056104256939
1.0,6.043095275994081,8.35182578777158,8.925986999555816
1.05,5.5016241912729615,8.928542526363369,8.600212621213204
1.1,4.930977685400734,9.27580140602377,7.80352328522509
1.15,3.9484336727978575,9.422538534112636,7.592831653811458
1.2,2.665335694792906,9.332013122076775,7.728158267045754
1.25,1.553840793720374,9.045231354234021,8.444024875050847
1.3,0.7915547109443442,8.749307863681155,9.303195226174998
1.35,0.5193162606773145,8.604632478969524,10.28585738604463
1.4,0.3544368532249122,8.615852948849327,11.30945837085731
1.45,0.6458696243884194,8.736534461621387,12.330193356137448
1.5,1.1847017890910578,9.032854321516613,13.747877694609357
1.55,1.8613481503881646,9.216254810696922,16.13030324034603
1.6,2.7766135565683845,9.160984595027049,18.731372837080666
1.65,4.044055574743562,9.252674113933546,20.78408964775684
1.7,5.677992533548011,10.413782333194973,21.45770579192633
1.75,7.454351087800584,12.402427745373613,21.002495719610867
1.8,9.075571487659246,13.736994704559425,19.78280599187696
1.85,11.061123832521243,14.065366311671797,17.90591549237764
1.9,13.16687877175624,13.909328622117085,16.577826308899823
1.95,15.013868759821522,13.323301852082416,15.895501201394259
2.0,16.71495461635351,12.044375654714736,15.217833022050831
2.05,17.48694302184599,10.432488847913168,16.078120025733085
2.1,17.212636919291505,8.60499086883231,18.29515296847194
2.15,16.190598980554167,6.708976330776843,21.04818470625325
2.2,14.711821347259548,5.031653630021661,23.76356345867882
2.25,13.440074661780372,3.686898945797259,25.962360907802044
2.3,12.812386549567586,3.095026108398185,26.96757334371482
2.35,12.932579333259836,3.184796509501456,26.584305987374766
2.4,13.671397790818174,3.523510906316348,25.288744230810018
2.45,14.036311601153079,4.1177840075772725,24.05657617272014
2.5,13.798335119610174,4.373556999130997,24.038974605160398
2.55,12.973329837363947,4.15471607341633,24.93398467324227
2.6,12.189143653179453,3.7483208064878104,25.62916078890518
2.65,11.715947381417639,3.521920514021443,25.468284991113784
2.7,11.49280006372204,3.4139547548880897,24.51978155011023
2.75,11.204148734055858,3.153279668593828,23.511723309570232
2.8,10.70423920810735,2.694338841509683,22.667407352227396
2.85,10.136717296984052,2.3217358728943167,21.660857739377548
2.9,9.50985642046231,2.210819600386251,20.479649726214294
2.95,8.840817325110612,2.1404787363175997,19.093162201625027
3.0,8.096009408318517,2.0938668522917117,17.382082701947205
3.05,7.369415801750368,2.1440149989525255,15.281460405632076
3.1,6.9239283833217415,2.2524274787686007,12.899637243979413
3.15,6.8048440847063265,2.3845105784971334,10.72461805954383
3.2,6.80998713436418,2.435362963368812,9.137410036599645
3.25,6.743301133957812,2.3319151586114635,8.154829507078675
3.3,6.61209729926922,2.2747184880070574,7.41284186415033
3.35,6.518228455794955,2.30846831236354,6.640127372240705
3.4,6.522612506417682,2.3227497891847886,5.977175962650731
3.45,6.61609220356033,2.331691275536529,5.487444315576821
3.5,6.631386746894841,2.371887606040363,5.191549563032374
3.55,6.516248361028007,2.357180104405414,5.1987680363755775
3.6,6.432248309616817,2.3934599977019837,5.227788940636336
3.65,6.387409937335724,2.395034917301967,5.183791639795938
3.7,6.296548242606624,2.357146380070778,5.023544413114239
3.75,6.2508590060992,2.339088382021414,4.724245086576255
3.8,6.205503350989843,2.2789811755649865,4.241372053411099
3.85,6.1502857093246215,2.176252842286166,3.7753091761581445
3.9,6.0439667723229835,2.168513632731611,3.519443875774425
3.95,5.896121277329811,2.174116295443534,3.341395412038935
4.0,5.77848136263251,2.164674984559074,3.2520918990293906
4.05,5.667167010657273,2.2200244794819746,3.221630760473829
4.1,5.61914413389865,2.288925809266255,3.203282292850688
4.15,5.52075668108182,2.3092840786342697,3.235169612385052
4.2,5.296988409899609,2.3701935158914282,3.078015433000697
4.25,5.027011055914382,2.382514813103779,2.6928294752864135
4.3,4.618329357554815,2.298072516385917,2.078374242711343
4.35,4.241066530575352,2.1825026732830297,1.478830134917323
4.4,4.047150795822696,2.0417709874199965,0.8515701815934941
4.45,4.036299839763273,1.7329433721000145,0.5266154255727535
4.5,3.9705905053011956,1.1930223739844257,0.16358726228734574
4.55,4.207153567463342,0.8618850100502475,-0.4224639015588376
4.6,4.743861881895462,0.7637112615004304,-0.9279805489767309
4.65,5.832485392366566,0.6391222468232262,-0.40183572351144753
4.7,6.486795524690704,0.42805680581575917,1.069170537324885
4.75,6.533250774821176,0.5243999767126255,2.307038504716377
4.8,6.935262813316444,1.0036130801311622,3.1103928070827154
4.85,7.482462685921891,1.5158441718844877,4.943374096834752
4.9,8.220939411776746,2.0600550043748167,7.484793995583054
4.95,9.07582848651109,2.5331781186114597,11.535028295676538
5.0,9.610530393761582,2.971343024520467,15.919897720221442
5.05,10.182771054471234,3.411012460703461,21.093300451477095
5.1,10.613359962543472,3.938655157436883,25.493710262008907
5.15,11.166349828421557,4.260270117051206,29.0337897003258
5.2,10.841575352801897,4.723869410364893,30.73090269013777
5.25,9.530672691780985,4.8217357692148495,29.37560846351716
5.3,6.733267009953978,4.498761086932615,25.755718590307442
5.35,1.4118737716830536,4.9858303005702975,20.5696395061601
5.4,-5.27392015858824,6.879887812448014,11.127688508316856
5.45,-12.149759575362637,10.956884614690285,0.3250044124044999
5.5,-20.906539004893297,16.34479198236585,-6.453448966013608
5.55,-31.48898266916288,20.315408719685696,-9.55123003987453
5.6,-42.787758547274635,22.147598106732556,-11.540645066708066
5.65,-54.291342979565776,22.185763854429652,-14.570389585352132
5.7,-64.03280443813411,20.8181291508878,-18.456989886700644
5.75,-71.69030862065449,18.74724618473625,-21.74405600244579
5.8,-77.17307332234336,16.414150742728502,-23.92061723253003
5.85,-80.54803893353368,14.493469913056773,-26.120236553972624
5.9,-82.755750272844,12.954313916704379,-29.525473646084247
5.95,-83.98303471604173,10.871461672211755,-32.883367521666294
6.0,-84.13284905327875,7.907834607539184,-34.870480291027526
6.05,-83.30834258433569,4.32452414625483,-34.789503073917416
6.1,-81.75751127926536,1.292791127662929,-33.91431072507534
6.15,-80.43198926477874,-0.8191933989895883,-32.91660949380261
6.2,-79.03733746009405,-2.1462916132248413,-31.74280563026904
6.25,-77.70463010936209,-3.7741704962793423,-29.34236672915131
6.3,-77.61815670213002,-5.5128909056221325,-27.417458228729327
6.35,-77.77056539524679,-6.372679924488784,-26.642462714158707
6.4,-77.7497367728186,-7.247065910312851,-24.934852071943578
6.45,-77.96815202791988,-7.968600491611853,-23.854381174954423
6.5,-78.22727483562944,-7.615132207157367,-24.427665791921257
6.55,-78.24665862127473,-6.350480387846549,-25.990281728827057
6.6,-78.05791654677132,-5.076256870312949,-27.51383359477476
6.65,-78.02749477994776,-4.504288401531514,-28.075260004174957
6.7,-78.06255966282689,-4.602066298378688,-27.986084818372603
6.75,-78.15856208857949,-4.5305922335893705,-28.39703893138459
6.8,-78.1663998546728,-4.431373007959911,-29.12113453831971
6.85,-77.93470211669617,-4.283190826594689,-30.00225573993952
6.9,-77.81895206109753,-4.3875153921530785,-30.64724761355258
6.95,-77.87463270091459,-4.590964071807938,-31.075540529818426
7.0,-77.95339126437146,-4.575063674645605,-31.352833438798577
7.05,-77.91323900449461,-4.484274281124416,-31.724996893604626
7.1,-77.83773877650125,-4.372353483063135,-31.949361121402116
7.15,-77.74491068843882,-4.2214414182906035,-32.07910837148462
7.2,-77.65161538028339,-3.9507115542659625,-32.22286226313537
7.25,-77.55158389815622,-3.6562672229285544,-32.363968689871406
7.3,-77.45176145601936,-3.2451087414636097,-32.49677965863982
7.35,-77.34621182900855,-2.8688859649814065,-32.59350540870225
7.4,-77.21672216385308,-2.5895232015867227,-32.72362781345517
7.45,-77.09611529939217,-2.410624305858158,-32.853966763551526
7.5,-77.09995056157055,-2.397230540809595,-32.92388581417361
7.55,-77.14721123103473,-2.32100440799684,-32.84798182670817
7.6,-77.17977913615985,-2.310393150779622,-32.82417186481634
7.65,-77.1543285456495,-2.345498224372811,-32.81199215349958
7.7,-77.18126780765509,-2.425948100727556,-32.74835648203403
7.75,-77.11790933811348,-2.5123655612412334,-32.68214828727945
7.8,-77.20060811474683,-2.500346956212936,-32.69693504099059
7.85,-77.22827282404806,-2.5013524791868993,-32.67019746356219
7.9,-77.19868798954337,-2.6032768715871692,-32.59132751736811
7.95,-77.16770423038244,-2.614925673134867,-32.52967111988548
8.0,-77.11006295502928,-2.6281910544173055,-32.454515586086984
8.05,-77.03712289630113,-2.695784948615685,-32.43778093213157
8.1,-77.0391150094701,-2.7090391327881242,-32.39522409379377
8.15,-77.11340832693449,-2.6500591379779763,-32.30085833125384
8.2,-77.08435797817819,-2.691306125926171,-32.300670398339925
8.25,-77.1116216020009,-2.782990915125943,-32.29268410520328
8.3,-77.1564556595159,-2.8955964741689204,-32.23201808606496
8.35,-77.16646002674959,-2.943615540718422,-32.19174294539335
8.4,-77.2046388050811,-2.939470360833483,-32.16170514192004
8.45,-77.21150368336234,-2.943110016368727,-32.135954262829536
8.5,-77.2049651963414,-2.910082413186727,-32.1298348296219
8.55,-77.2275805579729,-2.89969692336745,-32.13791120441252
8.6,-77.18298679944485,-2.8863428127844513,-32.15542456043813
8.65,-77.21262861909162,-2.840858646617683,-32.203253337843236
8.7,-77.29079295317388,-2.7936899103878146,-32.11256145076598
8.75,-77.32101870649802,-2.718769792844101,-32.089835907831855
8.8,-77.30323934110491,-2.7598975547839384,-32.10702230462855
8.85,-77.29531573603124,-2.7847868270061378,-32.07725420981688
8.9,-77.30110693115186,-2.790885178714825,-32.04720914798612
8.95,-77.35885253851357,-2.7850316638659827,-32.02282778684185
9.0,-77.33332098512975,-2.7983042421520694,-31.981973273099033
9.05,-77.32670170964127,-2.76388198131241,-31.9609906980815
9.1,-77.30074902027857,-2.7694437041483106,-31.92947490493718
9.15,-77.29182778678337,-2.793056246351427,-31.913281430116328
9.2,-77.27294559539982,-2.7655469923254032,-31.906537232806162
9.25,-77.32339650902202,-2.792761085490051,-31.944647010969106
9.3,-77.35632935276159,-2.7238052249707287,-31.909084198436883
9.35,-77.36368114615925,-2.6713274101924553,-31.851395012937584
9.4,-77.3428966148832,-2.6515647924968806,-31.86362898812809
9.45,-77.34435508954621,-2.617041749688859,-31.847023216870344
9.5,-77.3247314892067,-2.6438658678867593,-31.79216783427789
9.55,-77.37710409529484,-2.579459719090569,-31.76938013076137
9.6,-77.38414677622873,-2.5425308276269005,-31.73190270620692
9.65,-77.37958509386245,-2.53089662997492,-31.734163720638573
9.7,-77.34489625570613,-2.5519315004830228,-31.713640842951794
9.75,-77.35948844758403,-2.5522637320773445,-31.713863897788613
9.8,-77.36749709150071,-2.553620785642489,-31.70862624668559
9.85,-77.35863169979706,-2.6032060084404227,-31.71065020770477
9.9,-77.331889230975,-2.666202714331144,-31.73068112200658
9.95,-77.27617455764299,-2.72162605695056,-31.648301375285882
10.0,-77.20415366512388,-2.779025990737893,-31.490654251915405
10.05,-77.0664684681771,-2.8124641895226237,-31.364797415984125
10.1,-77.00822084553664,-2.7716201665910383,-31.247761284641665
10.15,-76.97183562338367,-2.62424640713827,-31.23317855753317
10.2,-76.95493946300316,-2.440297049499369,-31.234182948995198
10.25,-76.98762781698811,-2.3246629563546684,-31.23437408360527
10.3,-77.00399952807813,-2.2705183777514875,-31.214566182640866
10.35,-77.01605903642196,-2.299458474689946,-31.181329537533042
10.4,-77.02074100036728,-2.27374048194344,-31.159934422429053
10.45,-77.00967635836982,-2.268306762887519,-31.128647032308688
10.5,-76.98285351728254,-2.380314528975973,-31.067322578002816
10.55,-76.97140168330672,-2.5032579354695415,-31.07616074089589
10.6,-77.02568067868512,-2.588349345419691,-31.08197339182897
10.65,-77.22122285940638,-2.5766513718212996,-31.054884831150552
10.7,-77.21830755007426,-2.5411407854392074,-31.07844919516648
10.75,-77.22301202906193,-2.517038882294371,-31.085120339876667
10.8,-77.23814008016105,-2.5101520537880457,-31.071566978465178
10.85,-77.24550667663733,-2.535509923149522,-31.05334304359364
10.9,-77.25312056657731,-2.4375911703475075,-31.01674069131517
10.95,-77.2521095558384,-2.3566748623529863,-30.986882981756086
11.0,-77.27034303055275,-2.325033533036102,-30.977287406958368
11.05,-77.25127556895359,-2.328863533976383,-30.985055462568795
11.1,-77.24131943225763,-2.358140794116002,-30.978885323565937
11.15,-77.25873363783191,-2.392097131835108,-30.961395591270065
11.2,-77.23894343301461,-2.423038648578811,-30.993317043822323
11.25,-77.2245096531737,-2.2971024562145557,-30.956591706474285
11.3,-77.30746311383008,-2.1944382224404655,-30.884313304232478
11.35,-77.31980429044967,-2.155865982487927,-30.89088678486972
11.4,-77.3460715949661,-2.156649361186364,-30.91475124880877
11.45,-77.46842354600518,-2.154226835978549,-30.889403435112296
11.5,-77.53620009717993,-2.1578541490329655,-30.829644437715718
11.55,-77.63902204591601,-2.105659871868625,-30.808569210773026
11.6,-77.68957568932667,-2.061471094146334,-30.784950155955705
11.65,-77.71728206294823,-2.038346059780831,-30.760851847593237
11.7,-77.6899058166316,-2.05279119018166,-30.73432611449796
11.75,-77.72182665983011,-2.08983002566671,-30.713474887117048
11.8,-77.73529919032387,-2.13857577664241,-30.696028879267065
11.85,-77.75241660223028,-2.2242466782069585,-30.71938808824274
11.9,-77.79916675299167,-2.191456405457284,-30.704246976443695
11.95,-77.89397703228563,-2.233012984608781,-30.69369550889085
12.0,-77.89185309622725,-2.191626897421926,-30.761627643408602
12.05,-77.88110183380924,-2.2118685424135163,-30.790987280373912
12.1,-77.91197518564886,-2.187362229164604,-30.780182214572903
12.15,-77.88853855677017,-2.1499097726448113,-30.75938715291481
12.2,-77.91654971449393,-2.1356188719237243,-30.722611185422437
12.25,-77.90042819802787,-2.105523679305663,-30.690595928555755
12.3,-77.93941142260617,-2.0911534393043585,-30.682165519980348
12.35,-77.89812240063219,-2.1352509188445383,-30.637146553118722
12.4,-77.8856613661999,-2.2034674834214307,-30.634157211423382
12.45,-77.89498738149253,-2.265341844146172,-30.701409164619164
12.5,-77.9054439859502,-2.3582488331438287,-30.789840733105166
12.55,-77.93835194830767,-2.430910665677521,-30.761671998593727
12.6,-77.95322828642615,-2.4813536461433316,-30.772883931631736
12.65,-77.9753375694874,-2.548852962665162,-30.84939118647357
12.7,-78.01837218536282,-2.6267554979447203,-30.88632855737644
12.75,-77.9762474550371,-2.723691626607853,-30.88850098240086
12.8,-78.03254981526578,-2.807293706085034,-30.938680006178565
12.85,-78.0468770348842,-2.816743109834743,-30.949699007508197
12.9,-78.03544904671689,-2.828353940911456,-30.957333543866614
12.95,-77.991068658131,-2.927207868192574,-30.933973353412398
13.0,-77.95170101058275,-2.9940765981960857,-30.94125452345095
13.05,-77.86394258899104,-3.0808817812531544,-30.96599788293214
13.1,-77.78500136764147,-3.2101225979187338,-31.03343669558395
13.15,-77.8341174284919,-3.1727222688026413,-31.056258872751084
13.2,-77.9131201013007,-3.136742350385514,-31.13553497084988
13.25,-77.88909496661589,-3.0919310901268515,-31.26007299894439
13.3,-77.8931496595967,-2.991167835346747,-31.32528749061908
13.35,-77.90617579679754,-2.830454439496366,-31.4399311825786
13.4,-77.9167755225673,-2.605321835819322,-31.62262683540663
13.45,-78.05211702046718,-2.2541690086494497,-31.799343123380023
13.5,-78.09913476407999,-1.7710805512184622,-32.04371415426366
13.55,-78.04995917474551,-1.2502537333347488,-32.217058116399855
13.6,-77.97491964029804,-0.6718725237341957,-32.27026135354505
13.65,-77.8702204850413,-0.27855637078641965,-32.28119289748904
13.7,-77.83376996927917,0.09960574985202629,-32.38591443486656
13.75,-77.86407362235977,0.4505435083241361,-32.495800937906836
13.8,-78.03759712638255,0.6615893519372212,-32.43066007170841
13.85,-78.26733696613516,0.4965844794726184,-32.02690676179824
13.9,-78.54426368856242,0.25610970666881855,-31.6595808171288
13.95,-78.698305421942,0.33899067292884477,-31.746698867859045
14.0,-78.71438209544819,0.6071533797613974,-32.04016225291849
14.05,-78.81751659988704,0.8633949586616271,-32.603879898818946
14.1,-78.9792675544372,1.3319589615033074,-33.543968944475246
14.15,-78.9325811224852,1.9962092995820873,-34.85324763386143
14.2,-78.79497470103388,3.1282832428549625,-36.634597705651935
14.25,-78.78949385609047,4.547097450577486,-38.62483899252873
14.3,-78.61800056005565,6.048574955640847,-41.02821434715167
14.35,-78.29734783487692,7.054098771660701,-42.532399646859794
14.4,-77.9529894689563,7.422080514963967,-43.345563526464915
14.45,-77.54730018056586,8.258640489743065,-44.50187839427882
14.5,-77.06355556199819,8.959439789983092,-45.44700007240969
14.55,-76.50551040056436,9.538889214945009,-46.421514173078755
14.6,-76.19030939651022,10.358899331533868,-48.047502327330605
14.65,-75.87316590167593,10.8526011571056,-50.23971329880476
14.7,-76.09085057331077,11.611583303881845,-52.75564747803702
14.75,-76.46346505776124,12.691517938877844,-55.98157079526804
14.8,-76.68954145906486,13.231217658760986,-59.38506136579853
14.85,-76.93132622969198,13.505824761219115,-61.49431357725724
14.9,-77.29189886399355,13.357089545318335,-61.90639909347637
14.95,-77.91751593562056,12.933930964004439,-61.76600450830316
15.0,-78.29679967033749,12.48248205410919,-61.21583870299421
15.05,-78.91453851851654,11.930939159741369,-60.83164440346373
15.1,-79.22928151999179,11.322346561989525,-60.896607657164104
15.15,-78.64790903812802,10.719755575725031,-60.39068169616788
15.2,-77.59266348920043,9.7721846063412,-59.93080970785423
15.25,-77.19346615220633,8.936100570355892,-60.22211914944601
15.3,-77.12154170830975,8.380745846983928,-60.69715252333201
15.35,-77.66665233476061,8.21622358327165,-61.26294691288652
15.4,-78.46741299765007,7.917113572363273,-61.63520703202573
15.45,-79.51247305540693,7.920236418092408,-61.985428800181744
15.5,-79.96147155908437,7.769567844799634,-62.286091708633556
15.55,-80.15542221073525,7.643281270271668,-62.63813433396309
15.6,-80.50607029289633,7.394900150690473,-62.20768853327853
15.65,-80.83017877224766,6.755246834064251,-61.140310408799536
15.7,-81.12275040684874,6.145050965228571,-60.17877863611988
15.75,-81.14020332207603,5.832705932810409,-59.63760092909043
15.8,-81.11399958481903,6.011105684774263,-59.78549623552654
15.85,-81.03907340675556,6.356553363696966,-60.60149503467939
