Time [s],Anterior(+)/posterior(-) tilt,Lateral tilt left(-)/right(+),Rotation left(+)/right(-)
0.0,-0.34351040197922017,-0.01824370043654708,-0.5158199040682815
0.025,-0.32652367807268917,-0.01710774122082033,-0.5305013980434908
0.05,-0.30011291558893055,-0.013392919668415453,-0.5518439808987289
0.075,-0.2692462548902427,-0.0064828021890159845,-0.573466645766291
0.1,-0.238826013847028,-0.000494343051225886,-0.5898777806423867
0.125,-0.2128419287807745,0.0004926355320439927,-0.596981007170821
0.15,-0.1893004989550506,0.00042988160158821746,-0.5981539176727412
0.175,-0.1629270503131128,0.0030936940167860926,-0.6006194063941992
0.2,-0.13273379887164757,0.005895820073578266,-0.6054448360771009
0.225,-0.10223998797581645,0.006702646678910076,-0.6082126242816663
0.25,-0.07407699232072598,0.007499652875837625,-0.6059243081799921
0.275,-0.045607508899637134,0.00997733676868341,-0.6022239776396983
0.3,-0.010931012804642716,0.015779660086295527,-0.6012523073875539
0.325,0.03271107918837035,0.024791366295388185,-0.6025500787524769
0.35,0.08103449369594044,0.03516572337287658,-0.604018747597075
0.375,0.12900957333060448,0.04687370327545944,-0.6036689384263569
0.4,0.18561984662053088,0.06099449968151336,-0.5967998847980043
0.425,0.2570944232037765,0.07676951421374452,-0.5802712726841315
0.45,0.31497330789182576,0.08944615826089215,-0.5615980297311567
0.475,0.36041160359072594,0.09845833962410389,-0.5399757043910564
0.5,0.40245168873522774,0.10385385879387225,-0.5127388069951682
0.525,0.44283276369609176,0.10736719824185122,-0.4811373346688156
0.55,0.4807976190443316,0.11179453130722544,-0.44689937406294794
0.575,0.5133640118866881,0.11400415955708766,-0.4112184668631521
0.6,0.5431477783760629,0.11450746717745142,-0.37442575301686903
0.625,0.5761367863493927,0.11862064390677504,-0.3377560674480038
0.65,0.6083044809941437,0.1248085438744813,-0.3000600662363865
0.675,0.6318659584812187,0.1269362139242166,-0.2594917291042301
0.7,0.646823827461802,0.12180066418200239,-0.21904446633272762
0.725,0.6596038904626723,0.11362182518282984,-0.1815974237701161
0.75,0.6756675382557293,0.10959793949953171,-0.144840192859635
0.775,0.7055431811845614,0.11593448434224131,-0.10942860592522669
0.8,0.7784263089892681,0.1440640270466819,-0.07515436591675306
0.825,0.9473879344567316,0.223591020072256,-0.010356647227144076
0.85,1.2413447703396259,0.3747203796644491,0.16872164497367864
0.875,1.6446393358773193,0.55677136211658,0.48018637699306804
0.9,2.201792342100902,0.7340317468427021,0.7751933678427573
0.925,2.9241826163781015,0.8971943762345681,0.950223726643293
0.95,3.696932002137231,1.017726911639361,1.0906549279805313
0.975,4.399373777454448,1.081379005029351,1.301293947865263
1.0,5.0662938315160595,1.138111622261383,1.586583093139712
1.025,5.8077990290949995,1.208692869596347,1.9255294697451235
1.05,6.681204387417195,1.238221776510804,2.306041254298004
1.075,7.668427638252924,1.1700533163062443,2.714167124420366
1.1,8.720834300663986,1.0156423300141753,3.130910730335559
1.125,9.832913253724326,0.85816289311289,3.5321249576199643
1.15,11.023587196582161,0.7605724488488457,3.9012538898354636
1.175,12.253633985445227,0.6909714246330035,4.24614715031499
1.2,13.411963694950156,0.5423692222248148,4.620197409864185
1.225,14.4283975467642,0.24748400571190937,5.082211292805039
1.25,15.409303763422367,-0.12290349123989175,5.5731362352877545
1.275,16.579756853147348,-0.4090905318205046,5.896058563181973
1.3,18.09791190993803,-0.49629266065015404,5.861412413913264
1.325,19.9326643218046,-0.40022120235855513,5.444023751872224
1.35,21.98547542577129,-0.18739014896751185,4.732012422059042
1.375,24.275496115551906,0.14555773059889132,3.7755210177952665
1.4,26.9178809562464,0.6755483818579187,2.5651384966325557
1.425,29.994500001604692,1.4771823028962099,1.0826475463907335
1.45,33.57294689533485,2.6017136333053874,-0.7222688190546913
1.475,37.69794533976105,4.076367907018795,-2.9540986986037465
1.5,42.46729552328521,5.969698948511045,-5.706249539153738
1.525,48.04893774156403,8.431359569539005,-9.018105715508176
1.55,54.47405477585133,11.588115904809026,-12.923609699613102
1.575,61.26971755934735,15.258888559842088,-17.305855217879646
1.6,67.57313971251513,18.88002884380639,-21.696257194977395
1.625,72.63178620276318,21.827265860339786,-25.44827257480322
1.65,76.45117876634313,23.875250277698253,-28.431900338716982
1.675,79.5544204075166,25.17393813979159,-30.954373004297768
1.7,82.26214216469045,26.030962937254778,-33.16259100284561
1.725,84.63029754938078,26.663976581170445,-35.051354572630004
1.75,86.68777138580175,27.18418567672512,-36.619641979740386
1.775,88.42285975436027,27.65364182773581,-37.88456900822321
1.8,89.84185804333906,28.086145061502577,-38.88046833466838
1.825,91.17190616514185,28.550376744515756,-39.68541893852079
1.85,92.4461506074858,28.981890284495485,-40.33658293601896
1.875,93.53872828715119,29.150751093187814,-40.891216164753295
1.9,94.45596632839725,29.028318787561957,-41.37772363758218
1.925,95.29089713079567,28.762537262929598,-41.823399472838815
1.95,96.1095655216252,28.48039477167734,-42.23437435541684
1.975,97.00085206679287,28.261176115148523,-42.53398234889859
2.0,97.81508355678436,27.99030210569487,-42.61703035923069
2.025,98.45002629962343,27.622463506699344,-42.47483814990301
2.05,98.91178409149833,27.260755879254592,-42.11465853038145
2.075,99.15543255281612,26.954574477628622,-41.58018381071147
2.1,99.12854709606758,26.653674435341145,-40.91167624051077
2.125,98.9299312855394,26.352294910896475,-40.152210588559676
2.15,98.67994443896411,26.11515268985001,-39.32833252348459
2.175,98.48724233112995,25.999703663516286,-38.49398406652649
2.2,98.41602803802354,25.888483516214194,-37.787889668451754
2.225,98.42236430312381,25.595431169357017,-37.29816312024031
2.25,98.45753883306028,25.086481537553425,-37.01501444552251
2.275,98.5144100587396,24.471842500903115,-36.879272164716795
2.3,98.5941240880303,23.901368355285868,-36.82709000633416
2.325,98.68112771120254,23.511162652316177,-36.80070020482699
2.35,98.73053337605104,23.41697721390721,-36.74064918448704
2.375,98.71026485145455,23.640527175198248,-36.62662378567747
2.4,98.66059864678333,24.061638890053782,-36.54474169362215
2.425,98.61929438833809,24.586694400790503,-36.545490602655455
2.45,98.57029313011205,25.242800837418642,-36.56026698965388
2.475,98.51261833922527,26.05603070230849,-36.54971454540043
2.5,98.46249512565218,26.945975096650898,-36.56731804233771
2.525,98.41304060422111,27.77933959076681,-36.680436103209146
2.55,98.33352675815438,28.466952544254973,-36.91007055205607
2.575,98.1947954384036,28.971880466687765,-37.25191473409427
2.6,97.94309459625786,29.280741887767537,-37.67018556388771
2.625,97.44111294950491,29.35677638589532,-38.10339921952557
2.65,96.51498289989703,29.15765561936965,-38.498263298138525
2.675,95.02831255282595,28.658155339459253,-38.74276489794754
2.7,92.87934056413482,27.81021435964842,-38.77460594738674
2.725,90.06595044052656,26.770896590952322,-38.41450538360643
2.75,86.80477340117811,25.823569710213622,-37.490726424291154
2.775,83.31598769495712,25.264508778743355,-36.11261133402591
2.8,79.75502569546993,25.036973317549776,-34.530740360588204
2.825,76.28141405864027,24.82712985342445,-32.95226997920018
2.85,72.954862840617,24.42533235240643,-31.466819532045808
2.875,69.5384934554,23.697781934673376,-29.920933054103813
2.9,65.52782025034026,22.415956041236388,-27.985457818977352
2.925,60.43748726403167,20.383295900290264,-25.33721646493288
2.95,54.22399150978035,17.59459356202468,-21.949821112753256
2.975,47.4323714559291,14.419032080795308,-18.246914768933554
3.0,40.84697976528897,11.482181342818556,-14.785830556672813
3.025,35.098858339255436,9.176510777874212,-11.945110946634424
3.05,30.41086873226751,7.5093053384184065,-9.816159945772055
3.075,26.65673850416612,6.332249189105876,-8.302694309259953
3.1,23.620555517089798,5.523002856645398,-7.287600429351236
3.125,21.124031193434618,4.999814152088969,-6.650104418796348
3.15,19.034433490010787,4.6987127948007865,-6.25752221890056
3.175,17.256583955478135,4.5402435879331895,-6.008695573613216
3.2,15.727154787710155,4.453091831966775,-5.862823312848216
3.225,14.38467408055543,4.405518097756782,-5.788768093343485
3.25,13.174287923663165,4.395433588458525,-5.749409311416905
3.275,12.090318038028766,4.429793691851443,-5.745622825470337
3.3,11.129044961002295,4.492252269461481,-5.772079880175384
3.325,10.255787947860165,4.548651447169174,-5.808674568381924
3.35,9.42908332321788,4.573501788482564,-5.847782339197865
3.375,8.646204084686502,4.567259214208631,-5.888842830868472
3.4,7.937858139249977,4.562682717633568,-5.910714067081602
3.425,7.342593723429165,4.58694570988836,-5.887300010403286
3.45,6.913723131689173,4.677857563766171,-5.834007910826805
3.475,6.6599674554013255,4.872881437718821,-5.775865733531724
3.5,6.5093862581053905,5.137253709467216,-5.7062988480207135
3.525,6.406884585710304,5.373681347151626,-5.598629614643146
3.55,6.302212281142622,5.459497816276903,-5.394461634703084
3.575,6.161641121822003,5.357937662193085,-5.051928927600198
3.6,6.019184395020847,5.159304676185102,-4.589348392209643
3.625,5.887970065996513,4.947379174896929,-4.020038252019004
3.65,5.7201038600554455,4.720758149559832,-3.32266543591422
3.675,5.513288194572553,4.472090708588982,-2.4950464595717468
3.7,5.259394088735975,4.193875840925223,-1.5413604410774895
3.725,4.955887574154888,3.8950664830559147,-0.46564097144847927
3.75,4.634038199786017,3.5877734659526737,0.6973999087827243
3.775,4.343438549399876,3.2739854427909796,1.882240993588077
3.8,4.128040273616131,2.9463984686488995,3.0320259557399787
3.825,3.9944234939633847,2.587173902377799,4.146008470981946
3.85,3.910944058493428,2.1801391342125336,5.313543259072743
3.875,3.841082918404976,1.7091615534381668,6.608731870270306
3.9,3.7612378844050096,1.1671474720736026,7.9644090283183
3.925,3.6874893691988087,0.5834716181883349,9.22538465472291
3.95,3.6426370679281086,-0.003097095410725255,10.328914458356254
3.975,3.6382984608087123,-0.5779703774627356,11.341212118629416
4.0,3.675541565149189,-1.1470392339117985,12.316595683405218
4.025,3.7477978108762295,-1.718001987234863,13.208769183349585
4.05,3.8350770346653964,-2.2914685525189844,13.93790661271122
4.075,3.921349462743532,-2.851161561853916,14.479708326230304
4.1,3.9946448525378595,-3.372023994712164,14.881085890995385
4.125,4.049990516161414,-3.8239007664941296,15.190074695267748
4.15,4.082048835684982,-4.1880533596766085,15.416746343491825
4.175,4.071795400666735,-4.472998720058669,15.555539324416133
4.2,4.016722924404626,-4.702735973666319,15.613331760966231
4.225,3.951887628322652,-4.904501768704106,15.600620019927733
4.25,3.9032549061122483,-5.110640142385337,15.529493410590062
4.275,3.8734827841463626,-5.346359122800826,15.42682554901587
4.3,3.857600751414833,-5.617783468524824,15.317994601086804
4.325,3.856231453471324,-5.906634472605154,15.203286157175004
4.35,3.8775694084862486,-6.184533139904647,15.08041572777525
4.375,3.93314550450441,-6.434909708987723,14.96820191502145
4.4,4.037311402927744,-6.659983377908756,14.870553025995013
4.425,4.18589184477522,-6.874174815292772,14.767427196051282
4.45,4.3483936873260784,-7.085526638448532,14.647218573664622
4.475,4.4968841123183605,-7.282133123723868,14.512350779676533
4.5,4.641697882411268,-7.438424266077163,14.358522052087807
4.525,4.799774038528148,-7.545702313014229,14.186175978501712
4.55,4.967402587588241,-7.622167785641995,14.011965796429848
4.575,5.144903863066276,-7.683187910515026,13.856782699127205
4.6,5.347353842137436,-7.707343125081259,13.732244536752495
4.625,5.58075732761408,-7.642143177949513,13.639877684306649
4.65,5.818206575767395,-7.449584778230496,13.602694754842988
4.675,6.009706786963846,-7.145151940985778,13.682854891333411
4.7,6.1580641468850255,-6.761812868398322,13.903389744932369
4.725,6.342988726989056,-6.302148062106622,14.201711576307947
4.75,6.658783238256608,-5.752686428493658,14.492970489982536
4.775,7.134587695428951,-5.129952410113866,14.75439645904307
4.8,7.7289936942523205,-4.475773213752942,15.029983077884532
4.825,8.385028605233693,-3.8074297745463013,15.350335027116014
4.85,9.068510361689555,-3.0999747956681176,15.670827025211315
4.875,9.729113192543782,-2.3530429581684293,15.90121402372977
4.9,10.301632186413537,-1.6101470071447042,15.965523825179217
4.925,10.759925148342608,-0.8850202612565787,15.83569245235974
4.95,11.113309023543659,-0.15872136005233553,15.536199361563238
4.975,11.392857834036276,0.5593533111092659,15.086760889643493
5.0,11.62760269684051,1.2384579044851145,14.425052414183941
5.025,11.808356200287964,1.8961050968047268,13.441700908642511
5.05,11.849945293881788,2.584995142789728,12.17975423996956
5.075,11.534619312956735,3.2557400757345523,10.96238585847317
5.1,10.459171775942348,3.6324338248253314,10.25249986118075
5.125,8.299727410541824,3.377831508473722,10.209509885792436
5.15,5.464242949087075,2.5404898217954863,10.36281128309696
5.175,3.0318489880135857,1.5971912700791204,9.994325928606807
5.2,1.8417091542447641,0.9725072894395026,8.732195861711466
5.225,1.9360163088500204,0.7334760257910136,6.675401197650227
5.25,2.8098122233713454,0.6475293530535008,4.194569542726886
5.275,3.9031381081884238,0.4452153216018087,1.6938866032802855
5.3,4.840234759274042,-0.0156377610945055,-0.5557255896113054
5.325,5.427741411338488,-0.7163855077272672,-2.392143186235448
5.35,5.615756456469713,-1.5492519861845377,-3.7481980894315687
5.375,5.508439817696751,-2.4193737405206726,-4.6980218457197465
5.4,5.318126256706122,-3.2197123902077416,-5.403055268578876
5.425,5.208590070171021,-3.8525944951529736,-6.020647610255984
5.45,5.188812149102923,-4.323615895076917,-6.665331675216984
5.475,5.209453420270847,-4.666545609441734,-7.431194558800521
5.5,5.297997951643514,-4.835042372464566,-8.3892659992846
5.525,5.551418652729787,-4.749078274860396,-9.583025432040362
5.55,6.049528279050547,-4.367808938009829,-11.023029773939578
5.575,6.787943473179143,-3.7273641113789022,-12.63153981777702
5.6,7.685675989467829,-2.9286515936407054,-14.286525950919001
5.625,8.61156395415286,-2.0852618741037454,-15.927933885723293
5.65,9.439455220665845,-1.2701996076438296,-17.585069745715124
5.675,10.132769580865423,-0.4692984717478162,-19.316799655825154
5.7,10.767527813468087,0.4045110007711755,-21.13946630542967
5.725,11.460014283247537,1.4217986164882856,-23.03284349986188
5.75,12.263593695721651,2.5402762896576854,-24.954062827172677
5.775,13.13323644514406,3.6362099602999893,-26.846680327558012
5.8,13.942617613513331,4.629840515412362,-28.65318064247908
5.825,14.518259568772127,5.551005857326746,-30.289506736030344
5.85,14.744537554868794,6.472209868657925,-31.649926793105738
5.875,14.66198246780029,7.389026566128514,-32.67291879711056
5.9,14.45056296695824,8.255608268802709,-33.407521744052424
5.925,14.308330061497012,9.10022037122635,-34.01186533496177
5.95,14.307354468768963,10.007274966521736,-34.66794855693088
5.975,14.420112601945743,11.052908614734545,-35.49454380565459
6.0,14.651398121454262,12.29305758473724,-36.51730672163144
6.025,14.996183720828688,13.710933893885352,-37.64107575004913
6.05,15.31283547718835,15.1478242880354,-38.67753064530333
6.075,15.366155928934855,16.378894853272914,-39.490334774418464
6.1,15.017663377231406,17.27666876668954,-40.09112537423164
6.125,14.37808156009102,17.876489164359157,-40.58524410693195
6.15,13.723811332209152,18.29917207403845,-41.07062763667858
6.175,13.27822487639963,18.645391979603385,-41.601450912381864
6.2,13.096986663746597,18.955771297391514,-42.1917538705192
6.225,13.106121583022201,19.22069616916285,-42.80704467587408
6.25,13.244754371112236,19.42716178528101,-43.405274269904936
6.275,13.561588717062916,19.612271933622345,-44.01606666510034
6.3,14.161825114298757,19.88789276004398,-44.7315128345203
6.325,15.110484613179732,20.345141100587238,-45.62119563325018
6.35,16.39211461771868,20.95884475792944,-46.687826240820954
6.375,17.875892109784658,21.654941142447424,-47.84800751205725
6.4,19.31737754992602,22.362595482916156,-48.93375000614608
6.425,20.444666770288617,22.987949946240875,-49.79123416932726
6.45,21.074270516270577,23.453759668942215,-50.390662318991794
6.475,21.203963195418165,23.743954571899792,-50.820718272990376
6.5,21.00071584782304,23.887018305716605,-51.19008249729155
6.525,20.655783746088048,23.941693926807226,-51.58937153285945
6.55,20.329306378459755,24.00526833424577,-52.098496096098394
6.575,20.077257927506757,24.130000226502876,-52.70782698333962
6.6,19.812444722559945,24.263205099376954,-53.29126641323755
6.625,19.449408585496542,24.353516929486897,-53.72764746602783
6.65,19.027682326529945,24.427275767745716,-53.983656617309826
6.675,18.652521574387762,24.52922928510226,-54.068773604796306
6.7,18.376220655857228,24.647506675560134,-53.988917926030865
6.725,18.18486601758052,24.72368028884058,-53.767020542302625
6.75,18.075365722229158,24.71729722807366,-53.4409005565183
6.775,18.087808210987898,24.6267434562374,-53.03429914975929
6.8,18.260542070698985,24.481365121205,-52.57362108581643
6.825,18.5978195828837,24.325081177072367,-52.1011650126471
6.85,19.053763921426686,24.150913622803536,-51.63969962555055
6.875,19.531612493467968,23.865658850947494,-51.18484810732193
6.9,19.88819675179762,23.399262486401778,-50.69668403764237
6.925,19.966647810547556,22.755403065722273,-50.08607840090859
6.95,19.67563724912895,21.90859641214834,-49.298910915538784
6.975,19.07330551567678,20.853356572762145,-48.419510672962936
7.0,18.346182202793024,19.699596135622734,-47.61652355093736
7.025,17.655212195113652,18.590509577055542,-46.979565557998015
7.05,17.02465640566414,17.595920093461828,-46.43970621458498
7.075,16.38751390316383,16.721056758513637,-45.84295326636596
7.1,15.698616280856767,15.940717378726054,-45.07573288810035
7.125,14.976940869701142,15.223435401958204,-44.11912447160495
7.15,14.248223002563364,14.535428502137773,-42.98191336731568
7.175,13.517275655948936,13.836613943077642,-41.6389966331471
7.2,12.813844602818714,13.114582205698815,-40.052513572510065
7.225,12.21028055613466,12.402969216474736,-38.17932096822152
7.25,11.762096177304189,11.67666134666261,-35.96873864020284
7.275,11.477231820829866,10.840798515171143,-33.48118751425897
7.3,11.326748652968146,9.936735013133669,-30.946990117919285
7.325,11.326990996939037,9.188528398852828,-28.58069131186601
7.35,11.599951908674106,8.76983236813907,-26.41561010620267
7.375,12.259245257908114,8.603829097617856,-24.356445274987482
7.4,13.252640451526664,8.441472118691184,-22.328781061036874
7.425,14.43270257785466,8.116369183722847,-20.375058543570667
7.45,15.717604942514637,7.623981404537657,-18.60528277578058
7.475,17.035264154571976,6.962035526427288,-16.993269493793548
7.5,18.161929243122206,5.989231408648548,-15.274996629015073
7.525,18.869583161652226,4.593139716917716,-13.115853300039973
7.55,19.199948314802207,2.847382967319398,-10.36724640532546
7.575,19.42147693149769,0.9137933519959743,-7.193202293191744
7.6,19.793029160298303,-1.018823565042822,-3.9532374943699833
7.625,20.366538656905725,-2.7847291898997426,-0.8938066824278267
7.65,21.084968370369268,-4.364947422800705,1.970261054018368
7.675,22.005402975378058,-5.8756734097199,4.7401150412524045
7.7,23.21106229928999,-7.381535444494978,7.526125075191476
7.725,24.682462752587476,-8.854281821218109,10.395830869410265
7.75,26.166768442550293,-10.334597140462021,13.388429083133886
7.775,27.384226641455093,-11.80402288502117,16.510607575606553
7.8,28.26494463137547,-13.172957333287032,19.68827410981766
7.825,28.952802498356988,-14.4049363030565,22.724576771748577
7.85,29.65493163785677,-15.550172705138161,25.38778227026615
7.875,30.453403839197968,-16.680362046571577,27.598764027645213
7.9,31.264066839329626,-17.84360461409937,29.419103250111597
7.925,31.917676488404954,-19.00175762590908,30.95987525278119
7.95,32.31453778727797,-20.029067959630115,32.340526449606244
7.975,32.513596060079806,-20.82294453574543,33.653527555030415
8.0,32.6196627403292,-21.37410921921994,34.95734916003117
