Time [s],Flexion(-)/extension(+),Abduction(+)/adduction(-),Internal(-)/external(+) rotation
0.0,-0.7036296561275763,-1.080366944390479,2.6176995924868747
0.025,-0.7149446162252019,-1.0748022194937987,2.6284762537802413
0.05,-0.732556707180858,-1.0699636466189315,2.6450497926329035
0.075,-0.7527527208996576,-1.069565330304703,2.6615014051102643
0.1,-0.7710239412196919,-1.0694876809714107,2.667137797282853
0.125,-0.7834580763417094,-1.065505597881099,2.657136999903959
0.15,-0.7941389475957306,-1.0614959775206123,2.6434396044189366
0.175,-0.8093209355542975,-1.0608021737078215,2.6365153967520207
0.2,-0.8280506514701657,-1.0610547879133996,2.633322885189661
0.225,-0.8460864629013244,-1.0604188695917862,2.6266790382809537
0.25,-0.8626882860226258,-1.0597904507591351,2.6185430689280027
0.275,-0.8812610424612191,-1.060306898982761,2.6150669048372905
0.3,-0.904266273983002,-1.0624301302978783,2.6136448037732345
0.325,-0.9261479222453912,-1.063479505759381,2.6043182085835777
0.35,-0.9416905892160055,-1.0625481627585094,2.585320746638156
0.375,-0.9600148413026395,-1.066159058620425,2.567547192848014
0.4,-0.9839295376286313,-1.0747301177984314,2.537975986216975
0.425,-1.0143313179910007,-1.084329156017184,2.4876081608324623
0.45,-1.0270897366816119,-1.0889848052890985,2.4320646395465944
0.475,-1.0262409856797408,-1.0890631904948964,2.374988019554839
0.5,-1.0212930852893407,-1.0832008644579165,2.3139178619283225
0.525,-1.0150208359817774,-1.0717704682081972,2.2509402692638103
0.55,-1.0100012399261953,-1.059912833610406,2.193340520229326
0.575,-1.006462725110295,-1.049257291773899,2.1479332565987606
0.6,-1.0057861753534325,-1.0406067936492347,2.114048961495682
0.625,-1.0077851981121444,-1.0358409428981803,2.08452210623011
0.65,-1.005528029023445,-1.0305726858050184,2.0491650701076427
0.675,-0.9932525676388932,-1.019663798309439,2.005764123540595
0.7,-0.9749747401207478,-1.001905186288168,1.964861288042692
0.725,-0.9613876197604261,-0.9823823325534058,1.9315127052058876
0.75,-0.9579338713653662,-0.9689017274789548,1.901607106970917
0.775,-0.9727322214271805,-0.968088149044974,1.8758545590789701
0.8,-1.0336085386118357,-0.991139311008051,1.8532583719081785
0.825,-1.1926415539393465,-1.0696528466932427,1.7998139240129052
0.85,-1.4794248942382549,-1.2251045057841936,1.6289716531274234
0.875,-1.8800591482280655,-1.4140390230739253,1.3213426652049425
0.9,-2.4583571049445023,-1.598055388203318,1.0248823581394906
0.925,-3.331338330899522,-1.7796010218005167,0.8907257247118375
0.95,-4.548600752302319,-1.9771500046095838,0.9083098229266987
0.975,-6.055690678410297,-2.227494583170589,0.9010071760343181
1.0,-7.844221591721204,-2.589803714347447,0.8136409774030706
1.025,-9.9138405851891,-3.067652241813871,0.6527359172228145
1.05,-12.110271076484276,-3.520017846862105,0.35473756349077484
1.075,-14.303124837883196,-3.792417103217158,-0.055853405510283435
1.1,-16.52392523065665,-3.900108649989774,-0.45443619502414356
1.125,-18.836249276702617,-4.001186789872478,-0.7377642672058623
1.15,-21.24029684763438,-4.189641556653789,-0.7988572780444283
1.175,-23.66497237415522,-4.4558010762131355,-0.5545470325189353
1.2,-25.994784188995684,-4.743538922736417,-0.0759079646032746
1.225,-28.174990014519953,-5.000666646370421,0.4396562571858471
1.25,-30.304262690182934,-5.263068459972555,0.9140157695797048
1.275,-32.58378637146233,-5.6487897615294465,1.5099139072853782
1.3,-35.17709692626234,-6.252426861487004,2.458130767536531
1.325,-38.058938244612015,-7.032901297642181,3.7736638406038545
1.35,-41.1269580246701,-7.90848785259452,5.322101689057578
1.375,-44.427838217025865,-8.902453691402107,7.0218809351754645
1.4,-48.109745981576445,-10.137885286359753,8.8551757701392
1.425,-52.270489561179836,-11.738530119227084,10.85233451080656
1.45,-56.99432867615898,-13.77620674360794,13.150539790732047
1.475,-62.34513777424087,-16.27462229070223,15.972421144074529
1.5,-68.4394094389774,-19.319283194315148,19.505021915926854
1.525,-75.43082593802062,-23.0870023978336,23.857898114299285
1.55,-83.32383678983854,-27.80004026352817,29.217460425550364
1.575,-91.63326268164559,-33.42258286156862,35.609949369969016
1.6,-99.46884933670458,-39.410176153407846,42.437200677083815
1.625,-105.99152947953031,-44.89199885794087,48.60288972005572
1.65,-111.1440162847804,-49.355301708387756,53.63329393535406
1.675,-115.44718987716581,-52.92589415138419,57.848399585170455
1.7,-119.1807554701346,-55.953502716561154,61.50937775619761
1.725,-122.39972775173729,-58.66226813533209,64.6884432317254
1.75,-125.19430805421112,-61.25211056230035,67.44019028445183
1.775,-127.59808882332202,-63.807091553909565,69.7985032053285
1.8,-129.6276613730705,-66.25998309089564,71.80852141177957
1.825,-131.52294204403697,-68.83917418164503,73.6545474430492
1.85,-133.35116853372662,-71.51542070910027,75.37647564069339
1.875,-134.98452318336894,-73.79909086675329,76.87660084373495
1.9,-136.40257035595144,-75.60976192858595,78.13988567473388
1.925,-137.69296292221355,-77.21196712766995,79.24821130212328
1.95,-138.9476818671425,-78.9142358598711,80.30442327471941
1.975,-140.23488260105853,-80.95765440995956,81.30135982078342
2.0,-141.3820216865907,-82.99071274885291,82.00006040354698
2.025,-142.3006953170312,-84.80615143657413,82.35073939155363
2.05,-143.01574587932777,-86.52588845386475,82.42880089062562
2.075,-143.54400004991922,-88.25800934393526,82.38883768504118
2.1,-143.93204682831245,-90.04735983037254,82.41171194818534
2.125,-144.33781502092756,-92.05054267181006,82.7204897877302
2.15,-144.91349100049706,-94.50182069436141,83.48267928000675
2.175,-145.78591861384467,-97.58414379388098,84.77362287211919
2.2,-146.98829817235512,-101.08692011023852,86.61978368390052
2.225,-148.3267590255973,-104.41129226880666,88.80398781340784
2.25,-149.71692039816017,-107.45945910894037,91.21322404161215
2.275,-151.2062017756181,-110.58048197792958,93.86673651651869
2.3,-152.66317240889703,-113.74915129302858,96.52480858591093
2.325,-153.98142685405742,-116.9104779026729,99.05908618161251
2.35,-155.06996615556469,-119.91325001896271,101.39171489078582
2.375,-155.8245969723164,-122.47146709360412,103.29111668466106
2.4,-156.3203380592179,-124.46656090655185,104.86664186234519
2.425,-156.7085429724571,-125.96541993939859,106.42939588174049
2.45,-157.1137574318962,-127.20245572856756,108.20105872716208
2.475,-157.6037849549138,-128.37052410467018,110.31252325777984
2.5,-158.07641946225164,-129.20372314779837,112.5430994040687
2.525,-158.20556363768475,-128.9240684329408,114.07312589144111
2.55,-157.55878148565313,-126.66761219742372,113.73030565463063
2.575,-155.83906555723422,-121.96340684395993,110.90468619374091
2.6,-153.14713133107549,-115.19089070166012,106.22623913032058
2.625,-150.06164708118013,-107.71900225192144,101.29906619646388
2.65,-146.951779402131,-100.4231160896084,96.95806521992046
2.675,-143.55577587041296,-92.97071047479528,92.74914590479274
2.7,-139.58437387346385,-84.98688845993959,88.3256236246949
2.725,-135.01802631379698,-76.83418513433377,83.62214347849128
2.75,-130.16085273008238,-69.48044934590503,78.71349286281786
2.775,-125.24783640794722,-63.56231205625312,73.90888052878866
2.8,-120.39489152580904,-58.87025009912884,69.48302140105153
2.825,-115.75229069562458,-54.84014220164926,65.53154319911039
2.85,-111.36454873626452,-51.05654394793602,62.021352068866925
2.875,-106.92343245205572,-47.25829477558031,58.62063953301972
2.9,-101.81552808689486,-43.1185907293748,54.762357139183194
2.925,-95.4671273759379,-38.33232258357239,49.88758903777528
2.95,-87.88402640533747,-33.05471149765035,43.98938853141055
2.975,-79.73438522376523,-27.864835324197394,37.73391500883976
3.0,-71.86958288576076,-23.375163997200367,31.8843422035375
3.025,-64.92966466745798,-19.82432970326434,26.868867762577096
3.05,-59.11751665628952,-17.067090826931285,22.73099881890677
3.075,-54.290606945580116,-14.873400628398569,19.37055181442407
3.1,-50.21386394362438,-13.07826581562832,16.744879621608348
3.125,-46.66198028921381,-11.604272999586298,14.83427879586915
3.15,-43.4657650062873,-10.43536483121983,13.559110733624218
3.175,-40.5402647426141,-9.530123795981705,12.78685202422052
3.2,-37.84734688424416,-8.80156496329409,12.394322011622888
3.225,-35.31920723276219,-8.17440912760162,12.261732101430761
3.25,-32.88030587469868,-7.611491888345041,12.262234880914654
3.275,-30.517590490205652,-7.0879250361242345,12.318773844724307
3.3,-28.217891653984637,-6.565642711749662,12.366269098822876
3.325,-25.95486417229491,-6.003506055291212,12.326343115432948
3.35,-23.72743155113312,-5.374666609729932,12.13761680130283
3.375,-21.584130139294547,-4.693188618285897,11.839884026884501
3.4,-19.583854678490674,-4.024544965070985,11.49199310664467
3.425,-17.79033680378736,-3.4320427177279007,11.108936931738958
3.45,-16.274622044252197,-2.9727026276003095,10.789756372665337
3.475,-15.054489236661503,-2.699149888052562,10.627452037862545
3.5,-14.05997494311099,-2.585538799368483,10.589052775689332
3.525,-13.193320833831992,-2.4955424292802544,10.601906752360549
3.55,-12.368398355773277,-2.26977047328445,10.637779831430809
3.575,-11.572978524134221,-1.8702843527231703,10.67623295428382
3.6,-10.866821047840851,-1.3884492087824427,10.677841799596525
3.625,-10.255776173909457,-0.9127036205556153,10.565742855596763
3.65,-9.673287641747262,-0.4477035356300734,10.257530590957145
3.675,-9.096686149150994,0.016152854712591428,9.712736983054533
3.7,-8.516023443798753,0.49505842907889575,9.00680011152491
3.725,-7.936614117795886,0.9892917160686455,8.245628696926282
3.75,-7.407011890249108,1.4887273705375346,7.512788771468359
3.775,-7.000972596452138,1.9892703469266684,6.902199401930132
3.8,-6.777905771074046,2.489368316344651,6.485909257584815
3.825,-6.715109799797003,3.0018098325833824,6.250814660994478
3.85,-6.713556934509743,3.537685416893527,6.0493944544561975
3.875,-6.681231805947014,4.1025420468396545,5.719710054969793
3.9,-6.576561780460387,4.715641038735132,5.248430067227166
3.925,-6.4351297601515665,5.385413754716469,4.750815376614924
3.95,-6.318679734005556,6.1028499554966595,4.356251117549002
3.975,-6.273806488603067,6.842722287492913,4.135302999510148
4.0,-6.298195290086189,7.5864836850195765,4.096123704239858
4.025,-6.338783546417315,8.324952388911644,4.22122988926375
4.05,-6.346361613899759,9.060547612473394,4.487658583196033
4.075,-6.312216946554579,9.778116089610778,4.861553661585808
4.1,-6.247164292609287,10.44462605986498,5.236485261302892
4.125,-6.166187864577623,11.020664622643052,5.4930934492178265
4.15,-6.07024168440472,11.490072045211578,5.584822212485159
4.175,-5.937694344964,11.88012078320856,5.543460355523019
4.2,-5.762093370326848,12.228958687212387,5.401078845871149
4.225,-5.577587069261391,12.556660889692695,5.1744060807179375
4.25,-5.4322243031539035,12.870678879864005,4.9089238178923305
4.275,-5.349043800062347,13.186783772195527,4.642832877426283
4.3,-5.329287861610752,13.51791346852434,4.386021373954754
4.325,-5.347614778819879,13.857154378102722,4.174291764693577
4.35,-5.365884913476088,14.18810046974568,4.038817123237312
4.375,-5.384794797465839,14.486834821903804,3.998360426562384
4.4,-5.4502011683487135,14.733258454739403,4.065784540921412
4.425,-5.578963902316903,14.93320019786539,4.237710590155388
4.45,-5.731788190142993,15.108178420283958,4.459629679016507
4.475,-5.888157910940917,15.255280004526542,4.690870288381117
4.5,-6.080826199763902,15.33675343366412,4.954476165980718
4.525,-6.322565575688274,15.339383347329267,5.2443681053515805
4.55,-6.580322982909907,15.299786220764952,5.502197439659535
4.575,-6.829728483535019,15.251489184378972,5.719339695849618
4.6,-7.081297125288701,15.162305277196355,5.929989293738384
4.625,-7.348027194270555,14.962037003029517,6.15914317083891
4.65,-7.624594788756346,14.61786492615958,6.415531941840703
4.675,-7.870112981213973,14.159898156534515,6.6094041395003105
4.7,-8.086846420961141,13.62703730927048,6.663214615513271
4.725,-8.352532499243452,13.012981479546404,6.585510182888086
4.75,-8.757909670927093,12.286932942034525,6.42445120603558
4.775,-9.335484570044288,11.455838108185018,6.23770854079603
4.8,-10.053391710169137,10.56085132841854,6.024853887148027
4.825,-10.874354395989142,9.611331668231067,5.801603474807851
4.85,-11.78227571411479,8.563427981151161,5.662275735654471
4.875,-12.734245156824553,7.4024931202915045,5.725635479178803
4.9,-13.67804847823582,6.158225799106249,6.081509822581029
4.925,-14.640231418645573,4.8264287360602145,6.749696219962348
4.95,-15.73036423600974,3.3627685865098442,7.660058986182346
4.975,-17.045895247261033,1.7385142228258395,8.623171905456486
5.0,-18.605125509555805,-0.029471831001202615,9.560880777913898
5.025,-20.41814435993039,-1.9501677425544328,10.626916584649457
5.05,-22.53216333807873,-4.1449106460060765,12.017536653098182
5.075,-24.92395751477638,-6.656736140352924,13.58322248638521
5.1,-27.305618672270697,-9.341911764642271,14.76134640605911
5.125,-29.138409419557668,-11.88629627116931,14.620941450641892
5.15,-30.38781657412127,-14.127526904883807,12.631652776141927
5.175,-32.00931565646158,-16.18608834146241,9.184310485214038
5.2,-34.98019536010972,-18.033871291900006,5.043244977438514
5.225,-39.21972457407097,-19.289426510248997,1.0046311170497306
5.25,-43.84533931545858,-19.763275966897467,-2.2610815250740686
5.275,-47.91157978692484,-19.956935758622482,-4.295018411654996
5.3,-50.82539093259681,-20.639820289739383,-4.7075584744346335
5.325,-52.39642423776412,-22.117438301971635,-3.681927427698691
5.35,-52.653473759822646,-24.117240915831378,-1.9956360165155784
5.375,-51.82766845721571,-26.14914778649828,-0.3173273868442988
5.4,-50.272354525787705,-27.738752467256607,0.802215200602323
5.425,-48.2743611816621,-28.61073643510928,1.068060402066106
5.45,-45.9870930094812,-28.780019829830643,0.5794103958093376
5.475,-43.521931686031536,-28.47816721873803,-0.3902056986995653
5.5,-40.97522735418067,-28.038469248111422,-1.5300301285611617
5.525,-38.37796722248851,-27.722605527251474,-2.4561886349976008
5.55,-35.72710226528983,-27.584847636631604,-2.8497441532790106
5.575,-33.05478745217596,-27.504334349939096,-2.741584042088443
5.6,-30.413043203367256,-27.31019443512856,-2.380022595722644
5.625,-27.83698039558728,-26.905785176508825,-1.8325347566881778
5.65,-25.379052338511695,-26.24896411962227,-1.0568664578470865
5.675,-23.157687069267936,-25.32033132665691,-0.31004252106669844
5.7,-21.265648485888015,-24.190240547972632,0.10285098189180042
5.725,-19.789938978302217,-22.9603182184026,0.23170447180819262
5.75,-18.79240913149251,-21.686765511987595,0.42235548565288206
5.775,-18.33149251301508,-20.42826016556782,0.9878564597492735
5.8,-18.35651404173566,-19.324286166970303,2.0366370300284142
5.825,-18.68471056869179,-18.549159239010567,3.3708418747139537
5.85,-19.19226893322557,-18.157784328890262,4.526946491443342
5.875,-19.942536299557943,-18.064245158564844,5.101545807726606
5.9,-21.030330119006106,-18.128757149535655,5.042732100567548
5.925,-22.30153359297608,-18.228688973910042,4.591575667531095
5.95,-23.55450419533235,-18.334355245886528,4.017715091082489
5.975,-24.8096189042196,-18.38914350554218,3.5136501897781334
6.0,-26.19019706785732,-18.309069403172803,3.18542256988462
6.025,-27.677838590542724,-18.106028291455043,2.9991912508804943
6.05,-28.987192674557132,-17.91686765658739,2.9858704173161037
6.075,-29.758790122645248,-17.83780892438939,3.3068220032439823
6.1,-29.905778795920394,-17.77975661434097,3.9784654802514328
6.125,-29.633173835567444,-17.610155808068956,4.8658967490377965
6.15,-29.22317794058983,-17.2914598763042,5.794628830175367
6.175,-28.877563909063827,-16.875285652445104,6.6772411592578775
6.2,-28.66933128507337,-16.416956624681617,7.458390703500369
6.225,-28.570047080118574,-15.932816898468191,8.030277695015533
6.25,-28.568809864256192,-15.410394357073512,8.321753832154274
6.275,-28.77206099894162,-14.866438129831403,8.448383843112579
6.3,-29.34380608689101,-14.377662120614216,8.645269680538313
6.325,-30.334538108376506,-13.984985746921767,9.07271967581522
6.35,-31.597747855753106,-13.659684038713442,9.811082517818459
6.375,-32.90042335129017,-13.422071407338407,10.863458223207052
6.4,-34.04308343928593,-13.346569193862413,12.118188780170016
6.425,-34.863779416760316,-13.479578292869569,13.392270945977344
6.45,-35.28064392755135,-13.81668790453452,14.488995109481948
6.475,-35.360112259025755,-14.246442139720013,15.23518350272475
6.5,-35.27683488514485,-14.54373657343415,15.48988762105286
6.525,-35.18380870026032,-14.52640782411497,15.193991701588677
6.55,-35.18858522962906,-14.20487757420231,14.428211515658024
6.575,-35.317809512249724,-13.744063782714338,13.368492131740508
6.6,-35.47926360642889,-13.339363010640206,12.199389099758916
6.625,-35.587543230922606,-13.129231796864811,11.094811973740386
6.65,-35.65700391915849,-13.11613939424423,10.19116264051781
6.675,-35.749812123137566,-13.201281597403822,9.528181102028597
6.7,-35.86291096554941,-13.302571306439987,9.076544874524513
6.725,-35.933644275822324,-13.425925921964463,8.797971680851276
6.75,-35.94014939547992,-13.585210986554156,8.611658026282113
6.775,-35.9302604019033,-13.716474229945097,8.40584990021373
6.8,-35.96644830893939,-13.74942761599081,8.124535013083397
6.825,-36.08861889377417,-13.719056564448717,7.795876990690327
6.85,-36.305571619222015,-13.723966328916429,7.484770045278945
6.875,-36.54814889674114,-13.786448645527388,7.256680296994667
6.9,-36.67152304705663,-13.851913760701345,7.068214608795099
6.925,-36.53731152382461,-13.862189675175898,6.7500181792172755
6.95,-36.07875425136162,-13.76375290737466,6.218945285840309
6.975,-35.370727861492014,-13.53036780982614,5.599254626502027
7.0,-34.583446880137025,-13.185426800794094,5.082383595882227
7.025,-33.84904441531881,-12.80663333850728,4.703698429759963
7.05,-33.187907439472774,-12.517423465806749,4.331136758756157
7.075,-32.548140500488095,-12.391268189730337,3.7866813937998165
7.1,-31.859100735980906,-12.361626690185757,2.9682774455851146
7.125,-31.090295084617043,-12.329052219947986,1.9068679422833184
7.15,-30.254427974166916,-12.278472804210573,0.691735260704928
7.175,-29.360534959926838,-12.258269601753746,-0.6081722033716739
7.2,-28.394035869415408,-12.33182259262349,-1.9184598402781017
7.225,-27.356838329950985,-12.54423515324252,-3.203481607617624
7.25,-26.236908759577208,-12.81133887270964,-4.52734436984759
7.275,-24.996489603516437,-12.942683216567207,-5.894364022518485
7.3,-23.66128918999791,-12.919472085813988,-7.0838576954008
7.325,-22.381669776069582,-12.982527946774804,-7.807868702986306
7.35,-21.362535019793327,-13.34055016427855,-8.029606436417058
7.375,-20.695446915498756,-13.905691829438197,-7.969392639275607
7.4,-20.283025127540707,-14.38899279757208,-7.832805812105051
7.425,-19.98563014654695,-14.601716501892126,-7.61029227682829
7.45,-19.7714603171897,-14.572190226762574,-7.148135400536459
7.475,-19.673751915131778,-14.424453759559697,-6.471498843781415
7.5,-19.559804896310172,-14.1654001915249,-5.900598300149373
7.525,-19.111413010462936,-13.713209442850493,-5.905816871800599
7.55,-18.126077338735186,-13.045565371759286,-6.784265204237882
7.575,-16.71974616257448,-12.166047449009206,-8.482758476565325
7.6,-15.282610109854234,-11.135672989540277,-10.706711674200378
7.625,-14.09979722442792,-10.160228321018652,-13.072362888453872
7.65,-13.225360526859307,-9.385519337860032,-15.162441607257986
7.675,-12.70038789616496,-8.595111587636804,-16.599576403388756
7.7,-12.4990367747225,-7.421922159468056,-17.120293961899446
7.725,-12.39321405747964,-5.833530538542355,-16.54886825012832
7.75,-11.913669638773639,-4.020402739393142,-14.979757894513819
7.775,-10.76191219682514,-2.184595294308059,-13.137692698726262
7.8,-9.181202849702522,-0.5635641924663132,-11.918599940642181
7.825,-7.619475408095229,0.8354737801694181,-11.467604708419856
7.85,-6.210140098588947,2.1778898951151295,-11.43437201077897
7.875,-4.834036008494629,3.4166884747538777,-11.449910230341583
7.9,-3.3716661942941992,4.391918467566514,-11.225066729872012
