Time [s],Anterior(+)/posterior(-) tilt,Lateral tilt left(-)/right(+),Rotation left(+)/right(-)
0.0,-0.6285827102090523,-1.602085805120219,0.5518064919100225
0.025,-0.6147905029419168,-1.5971804452688505,0.558831250187604
0.05,-0.5972868461588859,-1.5924336897665003,0.5663053725114313
0.075,-0.5825562886624899,-1.5881701286101348,0.5701411212655911
0.1,-0.5649848723012951,-1.5792428409423815,0.5654449398960879
0.125,-0.5355928129452195,-1.567329879020308,0.551090147044592
0.15,-0.4979135096183031,-1.5517113419560309,0.527460415134821
0.175,-0.4461707351623054,-1.5259539279797134,0.49564812957093535
0.2,-0.3861125081677513,-1.4981285229618826,0.4716229544186246
0.225,-0.32726299590827274,-1.4910370661632135,0.46697567032503806
0.25,-0.2695829514712503,-1.5010380039916666,0.46854364234367735
0.275,-0.2170866016201394,-1.5007589899605598,0.46040402755208865
0.3,-0.17397616034841618,-1.4898786402672932,0.44524809854030645
0.325,-0.14431094525109645,-1.4815741792185542,0.4344598978815558
0.35,-0.1303494240989287,-1.471973881195793,0.4285994075477772
0.375,-0.1293280631735462,-1.459273795309671,0.4233340121287645
0.4,-0.14459269792424226,-1.4523396799475565,0.4169298529667412
0.425,-0.1715126308023753,-1.4480775600737807,0.40869196565069177
0.45,-0.17656638641012948,-1.4366985015256264,0.4072796576624507
0.475,-0.16349678523472708,-1.423772553864319,0.4192249934017808
0.5,-0.15618293693947463,-1.4117952485909324,0.42891520815141704
0.525,-0.15717628707368397,-1.3952344968643533,0.43161788157876735
0.55,-0.16416863694319503,-1.3786626067491974,0.43248934970366154
0.575,-0.173449474918022,-1.3627635337474422,0.43551432699056086
0.6,-0.18325104629655375,-1.346796984243782,0.446218696330806
0.625,-0.1945205643391464,-1.3335886890888708,0.4628053378708418
0.65,-0.20863417181828278,-1.323520902282314,0.47843975228098967
0.675,-0.22439080184652577,-1.312976804254809,0.4920808043620016
0.7,-0.23967789431882944,-1.2990134594234535,0.5075295805400759
0.725,-0.25451709314786736,-1.2855776047674754,0.5270878554077337
0.75,-0.2666040045232906,-1.2784438688710285,0.5496917977224248
0.775,-0.28123260227358626,-1.2811387701889365,0.5717397908378216
0.8,-0.3205694613570567,-1.300841441284546,0.5908032712297566
0.825,-0.4108522660051151,-1.3507588764279717,0.5907901517703054
0.85,-0.5452448052728112,-1.4430582024224783,0.5297548961894418
0.875,-0.6801280109642514,-1.5597057230429388,0.38292459724463307
0.9,-0.7913473154890307,-1.6664958098374714,0.203747887149004
0.925,-0.8368878680446588,-1.7459012084728667,0.06181758239538442
0.95,-0.6951155515056147,-1.8167214898037083,-0.026710470836791202
0.975,-0.20739332262613855,-1.9061600922865722,-0.09421424646732081
1.0,0.6592044390491762,-2.0147412705471393,-0.15990302787508245
1.025,1.8509190865948704,-2.0844318153490615,-0.2040271930745466
1.05,3.3456482589663765,-2.031432477466801,-0.16561690885734084
1.075,5.186986103229814,-1.7830137193889266,-0.014269251343641152
1.1,7.450784852018948,-1.3031658746586834,0.20076511921278917
1.125,10.130858627345162,-0.6311757966823055,0.43907785162528135
1.15,13.130623139248428,0.16775677395879013,0.6904733959294483
1.175,16.29059957571585,1.0736635817785514,0.8958311106304548
1.2,19.40352274138066,2.094909193636955,0.9679910746786319
1.225,22.40401120053486,3.221383936440178,0.8897184320800031
1.25,25.369493845844108,4.374025375928003,0.7110138015876584
1.275,28.353153984393195,5.458431112628226,0.47766665676556613
1.3,31.30198073087498,6.429767344672869,0.1790979965661302
1.325,34.18990428034551,7.3129144903777785,-0.22798691868452076
1.35,37.007040282972504,8.151712632678773,-0.6973982953051278
1.375,39.77431936959979,8.907522072065316,-1.067644745624719
1.4,42.43415684706047,9.473721324037541,-1.203437672145552
1.425,45.02819852032619,9.7806986104999,-1.1053374420945163
1.45,47.62570327876178,9.818212380402356,-0.8298845012059411
1.475,50.236275149507506,9.620202871183313,-0.41710709400216317
1.5,52.582332051862004,9.225828319780033,0.09457730192877718
1.525,54.378615063850525,8.581404893596138,0.6994339682338315
1.55,55.361126764409114,7.541573849474176,1.3762868855804269
1.575,56.05574794447899,6.13169655446719,2.12207017080222
1.6,56.967253303477364,4.685043606664549,2.866710579710336
1.625,58.24126348237104,3.5731073830129874,3.440813096439841
1.65,59.77974080043372,2.9183964645811664,3.872448421574574
1.675,61.35352195372202,2.606429489341202,4.231768153264641
1.7,62.75215774666696,2.4312321653649955,4.541962735747603
1.725,64.6039659132059,2.266718731958992,4.8712020513582
1.75,66.88589150452195,2.118989517714116,5.426373582890481
1.775,68.7735772751776,2.037942812474987,6.166043852850619
1.8,70.75096982625814,2.023552049423263,6.929906138754701
1.825,72.78639299927383,2.0343134461375953,7.554661271599478
1.85,74.57135611542643,2.131567186496102,7.934197109650262
1.875,76.20924239967623,2.5148828763576687,8.130303033069286
1.9,77.80728091798964,3.3110192043419753,8.35811636563492
1.925,79.3922858721239,4.455767051559743,8.74782165974837
1.95,81.05289120039748,5.814880341541875,9.374915896912489
1.975,82.82576304863323,7.203225597501112,10.096979631167663
2.0,84.84353289472448,8.478496796868807,10.618286664913926
2.025,87.11634936333533,9.557438084919855,10.807103422772252
2.05,89.46774800140035,10.403618349814145,10.741401307281961
2.075,91.7433046915335,11.090426266889962,10.655522509212156
2.1,93.9272600999163,11.726014358501704,10.703150707176842
2.125,95.97071828514501,12.33056151221307,10.865985827102058
2.15,97.83890037981644,12.925807877999267,11.18333474039701
2.175,99.49096168998625,13.50619116071183,11.643314073970192
2.2,100.86495739734364,14.080546915272004,12.17083450837584
2.225,101.99057702554629,14.684254835842689,12.694802218819333
2.25,102.92398053733953,15.31099302707179,13.100708173658964
2.275,103.70515532513188,15.865782005456188,13.213260417873041
2.3,104.35429204444945,16.251420242643313,12.987973224975711
2.325,104.80020667665758,16.463281030944906,12.624506671292222
2.35,105.03341798853643,16.4756728902183,12.337493652569508
2.375,105.11015399938142,16.204438893526664,12.17559152691291
2.4,105.01246459800676,15.633312927345791,12.108766508303761
2.425,104.74268341054332,14.81554518818427,12.15239537972618
2.45,104.34892720099523,13.795238579838264,12.344016217750053
2.475,103.75785533760721,12.59822288204645,12.611605244494392
2.5,102.8420830863489,11.227325916915849,12.795560104185183
2.525,101.64147335960783,9.72191172823175,12.859336076954062
2.55,100.24617964202022,8.172806258410626,12.877518305488778
2.575,98.7534563358328,6.681018488278911,12.90336891087887
2.6,97.26114041192919,5.3441425580916055,13.004349102668677
2.625,95.419226261927,4.243962242474409,13.316810795858242
2.65,93.00608064351525,3.3913879358578494,13.851330120545864
2.675,90.96599160117391,2.6088281814952237,14.086656009310751
2.7,89.35922134359002,1.9181176310774044,14.214878017392596
2.725,87.94297516785895,1.2321200921505469,14.330511457089555
2.75,86.57410222479795,0.3842694889211791,14.174324494614792
2.775,85.10252672089733,-0.6713228488522424,13.689638621892255
2.8,83.44515873296062,-1.8105826342652807,12.98051346742893
2.825,81.53654180871297,-2.9606032890403955,12.134717684539629
2.85,79.2819193965023,-4.154898467641129,11.362137804802337
2.875,76.83367253146068,-5.381822067670859,10.899689320165985
2.9,74.70674903444916,-6.528314630012453,10.74936995439478
2.925,73.3222889782652,-7.430571867157608,10.569928153735516
2.95,72.50871145322564,-7.902060442261297,10.01070503606396
2.975,71.80761021391409,-7.944852858150902,9.001410199717368
3.0,70.73646714052596,-7.766698134714641,7.735759790606194
3.025,68.94946522291714,-7.53654339510751,6.47009190966013
3.05,66.35259917748061,-7.332021846194918,5.403397729378061
3.075,63.30293699773399,-7.234958253658967,4.606034274153453
3.1,60.13392928605377,-7.2885757399573885,4.098993229138303
3.125,56.89884111347932,-7.439917645239896,3.8332596993356773
3.15,53.45623257010729,-7.536301645494521,3.699279103135876
3.175,49.793533610905534,-7.367186644209619,3.584379622762299
3.2,46.03104048245194,-6.898050208335863,3.4371080581885245
3.225,42.23103248884078,-6.321987938268023,3.3042653591081734
3.25,38.367658477426126,-5.747059907043316,3.2058065824471025
3.275,34.33924494782086,-5.16066828696996,3.1985534993685754
3.3,30.249557430251386,-4.622754701629558,3.3395928616335904
3.325,26.32755384997761,-4.236658721578765,3.5801818545015305
3.35,22.568371397228052,-4.113158549742561,3.8437509236602123
3.375,18.965929491638118,-4.26443296218009,4.1125006516578155
3.4,15.569773898613429,-4.619088427632234,4.434348937916134
3.425,12.435973340331701,-5.101867040919255,4.794505229007768
3.45,9.610507854642599,-5.592217180123288,5.182149192672753
3.475,6.847189524352077,-6.060811146492695,5.644937384087695
3.5,4.002998223037843,-6.540205441888226,6.237203422183933
3.525,1.1414835657246745,-7.026891242907572,6.966618250150095
3.55,-1.4705074834378424,-7.569950686686815,7.816230948866338
3.575,-3.4115124574667437,-8.247339475798508,8.704633615049802
3.6,-4.796327783014703,-9.098443465411586,9.61115909003297
3.625,-5.952007396091828,-10.075907086421122,10.560565745237529
3.65,-7.035154551468506,-11.096380220253149,11.589198689095198
3.675,-8.078023460684507,-12.13567746493208,12.696166880729992
3.7,-9.03911639729817,-13.210377239638026,13.892056990744889
3.725,-9.884673554090213,-14.365256257080642,15.225051105005958
3.75,-10.55242761636093,-15.669986263628243,16.732074354042417
3.775,-11.038905824405205,-17.199958313519637,18.42642916310276
3.8,-11.327283617126003,-19.011973573969666,20.288637944977626
3.825,-11.47149126321238,-21.11863829782421,22.276092837297938
3.85,-11.564489542301509,-23.450854432324046,24.320178590961707
3.875,-11.572524038205996,-25.88628807713606,26.372583874056062
3.9,-11.453425302940541,-28.30495474504048,28.439499446498957
3.925,-11.248775379337129,-30.689720475441145,30.5410587900333
3.95,-10.976785246690802,-33.10421407629813,32.6187352386216
3.975,-10.619989412372561,-35.57526261918026,34.55499666128476
4.0,-10.183313811276378,-38.07012363422489,36.27102550526627
4.025,-9.67892869311545,-40.56321765447544,37.77776158181702
4.05,-9.105022867774034,-43.05763632682454,39.141966522410854
4.075,-8.452554797491793,-45.54728625935105,40.37973243902037
4.1,-7.698099913621434,-48.00330502481123,41.42785321641961
4.125,-6.881430416375443,-50.3726190504914,42.23341762444065
4.15,-6.064524452121137,-52.61210691733267,42.78986039983274
4.175,-5.252777101959296,-54.71580029742088,43.111487409381006
4.2,-4.46599968979349,-56.716047185761845,43.24215740364598
4.225,-3.737022958080189,-58.65159071797186,43.28509182619128
4.25,-3.0654937543901473,-60.53485922410858,43.29924953039067
4.275,-2.4560281682654863,-62.33502401163781,43.31191777385445
4.3,-1.9008175364225888,-63.99795896641211,43.36835809074792
4.325,-1.3732665585490629,-65.54764294220942,43.515386583887036
4.35,-0.9408988464928981,-67.02539805057903,43.759002979478694
4.375,-0.6212494438243095,-68.47963376295374,44.03989052930631
4.4,-0.3425258966538296,-69.94950451145152,44.267846901921345
4.425,-0.019167355896703007,-71.40553020379551,44.400540857617266
4.45,0.33007644439055556,-72.76019002241901,44.529468655913156
4.475,0.6580172641094616,-73.93633976511538,44.78020622766095
4.5,0.9370205221733133,-74.91713997517034,45.140169740787094
4.525,1.2240491366514308,-75.74271452393404,45.445051594068815
4.55,1.5876358039941876,-76.4468161224634,45.61842667301828
4.575,1.9854325391663645,-77.01840498488579,45.72399995460736
4.6,2.3380697239833372,-77.45498498577761,45.83742808763515
4.625,2.629619006173093,-77.79179690938587,45.94557508409614
4.65,2.929718857906596,-78.0740357366194,45.963465324701765
4.675,3.268090287121754,-78.2659116658104,45.83022865900546
4.7,3.641633046852328,-78.29691248352798,45.566896221284125
4.725,4.055814815901162,-78.17124524434615,45.23241388588028
4.75,4.475084637499424,-77.95946740357836,44.93429153561806
4.775,4.8612135096518765,-77.69836704628236,44.774399043183905
4.8,5.217367856710596,-77.34990054614936,44.75680989771956
4.825,5.542611885944816,-76.86630444398088,44.7841466190662
4.85,5.805806257252979,-76.22214057172685,44.729051775318176
4.875,5.962955257980693,-75.3554020233677,44.493924355942696
4.9,6.027115299849063,-74.21449348867516,44.06977401000101
4.925,6.074684858087638,-72.79437308090984,43.48556494863581
4.95,6.269536759705846,-71.08603089709199,42.6367952762212
4.975,6.621407046700361,-69.08267942105304,41.45050302662658
5.0,7.052963140343145,-66.81973964563942,39.978263783686224
5.025,7.5094012850103,-64.37436944798814,38.33554659567646
5.05,8.096258223666439,-61.81283576865612,36.574134362466786
5.075,9.079064386503928,-59.13996305914502,34.533180583643535
5.1,10.537311027213045,-56.25034227647571,31.994208318161444
5.125,12.379986660422746,-53.044848809888066,28.960705908333207
5.15,14.351700762140291,-49.6087435115737,25.765579721900117
5.175,16.004024739157714,-46.17120047422302,22.843349177190884
5.2,17.00341709505938,-42.90904646185545,20.40937333909351
5.225,17.364313955374865,-39.84358604159195,18.413159051406645
5.25,17.328597673803202,-36.869115632167585,16.65222596491776
5.275,17.07484461094754,-33.86925740491345,14.925144626184146
5.3,16.660729519656375,-30.855971571889945,13.211380438457073
5.325,16.185970710857305,-27.904161844301427,11.544366390440036
5.35,15.68947557216043,-25.079208397193216,9.911934214434766
5.375,15.138034517000877,-22.417724468676607,8.300852492897624
5.4,14.547002152060994,-19.95184375388382,6.722168102539975
5.425,13.915751681737232,-17.728131396582782,5.2405393581621365
5.45,13.280706783644227,-15.787447596741602,3.9476897835101417
5.475,12.694491487411192,-14.160593076476676,2.906268015163312
5.5,12.121519293287323,-12.85012646794699,2.070265973083117
5.525,11.504766219098741,-11.803004945102174,1.340647516881213
5.55,10.85685313312742,-10.93928988187129,0.6786342100511671
5.575,10.22919248556442,-10.224215141636673,0.05785585855659849
5.6,9.591313133654312,-9.669169810611526,-0.6616397597674899
5.625,8.980775672026606,-9.27664950471214,-1.660035324506974
5.65,8.532454701339244,-9.012709713356156,-2.9607531972830645
5.675,8.309698786582649,-8.842407317688252,-4.465036146538364
5.7,8.28607738727866,-8.760139386180734,-6.111270266037705
5.725,8.394432871231098,-8.751607350605259,-7.888110229863372
5.75,8.61193459192514,-8.714235362537213,-9.820857449812909
5.775,8.929665097694196,-8.50485838122866,-11.9645161292292
5.8,9.388978094180562,-8.050569692599742,-14.38689470268361
5.825,9.989734215730737,-7.400031405168974,-17.115731500368447
5.85,10.645791804216206,-6.641503066082065,-20.085956824208758
5.875,11.382382952526724,-5.737929474072386,-23.18905553615993
5.9,12.218702110005674,-4.570600199366728,-26.358279173089198
5.925,13.089483499633218,-3.0705567390402924,-29.565201444566547
5.95,13.806863754377796,-1.2997444703211005,-32.75570503079723
5.975,14.289924053818728,0.5232701280882784,-35.93030333019656
6.0,14.558489623231996,2.196296155043591,-39.15817826279245
6.025,14.619690352089377,3.6830711679085164,-42.4620156175328
6.05,14.743085640608784,5.210474139867057,-45.798240690640384
6.075,15.292126071739764,7.033262896120239,-49.11474318209559
6.1,16.38774578040004,9.254624813462154,-52.40985641285216
6.125,17.750412384542475,11.822651303959466,-55.77306289351158
6.15,18.977974424252906,14.67000561329099,-59.32718903854818
6.175,19.890214885980445,17.78065376224176,-63.1357501465693
6.2,20.560277361027264,21.095652911195547,-67.21229325679872
6.225,21.18560416405104,24.490075049057257,-71.52307145852117
6.25,21.86774040021961,27.839078381626972,-76.01350380306796
6.275,22.606917577478967,31.07640531443214,-80.6122781974631
6.3,23.427084456467153,34.15182959392363,-85.1488441413357
6.325,24.361869278081272,37.24564667625724,-89.39840366717466
6.35,25.007489833083127,40.62686648401684,-93.21950105616428
6.375,24.99214872752694,44.315374821920216,-96.5043333373725
6.4,24.32571988290054,48.146099061760715,-99.30780423796632
6.425,23.459837630526064,52.1903462673289,-101.80614814364802
6.45,22.770230074314682,56.53428760562645,-104.16545507202167
6.475,22.31782658688079,61.04612495121453,-106.40840975606865
6.5,22.133410083594168,65.39372915413918,-108.49039838675363
6.525,22.490637712796804,69.22969058282672,-110.3715772745692
6.55,23.59075338040097,72.30316810412982,-111.90213904239248
6.575,25.164347551042535,74.50633542364028,-112.91142802328312
6.6,26.711530493789923,75.73957770602973,-113.28188975455788
6.625,27.92297245219425,75.9892107963604,-112.97219379641213
6.65,28.73129870386075,75.41387638119144,-112.10704239969238
6.675,29.070356298120007,74.16019330327856,-110.9612288331123
6.7,29.068608624759598,72.42607999032117,-109.70936897033057
6.725,28.830933875139348,70.3394583241054,-108.34956216158385
6.75,28.483092410284062,68.1201331541961,-106.88373001452956
6.775,27.959739697572868,65.99922285984444,-105.42796077424198
6.8,27.127314261546875,64.08132288690186,-104.03323094922946
6.825,26.01930104819179,62.18055060567462,-102.5588172718057
6.85,24.839662197295247,60.14611969548676,-100.89380467944122
6.875,23.76119356699878,58.01323514744536,-99.09397361904149
6.9,22.86522555302137,55.80854405247678,-97.27133702992828
6.925,22.370307665849055,53.667620372728386,-95.43756753930592
6.95,22.10871644059898,51.499809603853315,-93.41288250892224
6.975,21.63442887769466,49.144593927563236,-91.0062380800589
7.0,20.762042476036015,46.69962406477937,-88.21035178204866
7.025,19.662991979351197,44.31190847146616,-85.06629415135443
7.05,18.638193405676386,42.01539315831552,-81.61880588465182
7.075,17.72127444800452,39.652983975183325,-77.9907279078443
7.1,16.86619415400397,37.078705225549626,-74.29722866637627
7.125,15.961920768177702,34.26142553742893,-70.5841535412041
7.15,14.924201879420409,31.386227866036432,-66.86431943832356
7.175,13.755519606940823,28.746660043133993,-63.135463800908
7.2,12.524822895646873,26.547347309252114,-59.361015834086004
7.225,11.320065672621217,24.759768951697964,-55.470570222167716
7.25,10.271136555937986,23.221947719355036,-51.40670466400322
7.275,9.480254631603984,21.700191823534155,-47.04717784085392
7.3,8.977301195199056,19.970904336421736,-42.23595864982783
7.325,8.777426726436206,17.908899425669848,-36.988316114242636
7.35,8.810079889123138,15.508175056968922,-31.48234735219185
7.375,8.960525282327005,12.925352676634452,-25.90071224249853
7.4,9.195189312867743,10.37636683902457,-20.33721342982285
7.425,9.56538661460138,8.006785907651654,-14.785216400069949
7.45,10.114352219152153,5.847337576136263,-9.175308373572655
7.475,10.907966221736068,3.8307627191886517,-3.480160804311871
7.5,12.018129930297423,1.8447147428592807,2.245680373051962
7.525,13.515182686961186,-0.27384714165966434,7.933027406162063
7.55,15.410130404401759,-2.713676508630339,13.5877335095188
7.575,17.6119110128867,-5.564130873357701,19.28568152446557
7.6,19.802569524421614,-8.685611724225845,25.097757588019963
7.625,21.809642379815955,-11.847571447210335,31.035145364822476
7.65,23.75124018836196,-14.993179518263252,37.08463486540534
7.675,25.661122538569064,-18.266150712389397,43.26039200071927
7.7,27.180224302470847,-21.806205179886472,49.60010782735511
7.725,27.988310534929198,-25.667867772127217,56.06336458878243
7.75,28.27605163250466,-29.85671602651137,62.49053211211069
7.775,28.50236550793998,-34.34747546420644,68.67688241190083
7.8,29.05262041791457,-39.089846095866385,74.41894183574034
7.825,29.971055627189084,-44.036545231676094,79.53932882410173
7.85,30.89457813180163,-49.01678694649803,84.10542950569827
7.875,31.601964718897243,-53.85500311226951,88.2608199821642
7.9,32.19412400841182,-58.51835253208387,92.0193733494883
7.925,32.75542164326027,-63.01447185764571,95.33694720853484
7.95,33.243146792280264,-67.27276224430108,98.26050641963471
7.975,33.6065191094692,-71.21949534181509,100.81425473709626
8.0,33.92474188295543,-74.86090751941967,102.98719988216493
8.025,34.17201515515597,-78.14319250273564,104.89849941049572
