Time [s],Flexion(-)/extension(+),Abduction(+)/adduction(-),Internal(-)/external(+) rotation
0.0,6.565464928645787,8.22550845069639,0.08678318818618597
0.05,6.476672184756032,7.8964448923105355,0.21827848650981446
0.1,6.2827368030750534,7.5530564870489405,0.36955996858286455
0.15,6.085960334536228,7.254857441396637,0.5193030879646294
0.2,5.901213883867062,7.023754783592424,0.6230272154920287
0.25,5.781650109163544,6.843346531796232,0.727658091963297
0.3,5.711777795820297,6.63473268728227,0.842288866555298
0.35,5.631415669369924,6.380209911774029,0.8887963105712366
0.4,5.513168379498914,6.191557958484333,0.8648174183879936
0.45,5.4162018298456776,6.033486975305614,0.8444140088255795
0.5,5.359225875918624,5.850992439396418,0.8180977729569294
0.55,5.302576920173515,5.657651191930438,0.757045622922123
0.6,5.274790380733986,5.491340169484591,0.7472220507315419
0.65,5.250787049937262,5.306595743157081,0.859630048437462
0.7,5.311074914522328,5.313803332735186,0.9591069424921127
0.75,5.358357831413692,5.347623314043571,1.0137595694613717
0.8,5.351547787281076,5.473553553441023,1.0587769367935738
0.85,5.316122979993915,5.535712168770555,1.0968923608588652
0.9,5.336819467465777,5.656815140381562,1.0796989868979643
0.95,5.368425261228645,5.810407483794644,1.0371224856001595
1.0,5.370269664437405,5.896497282661743,0.9879644161150626
1.05,5.370485936526233,5.95009298183263,0.9444164729195995
1.1,5.369898661786815,6.05350082889752,0.8989310457089291
1.15,5.375471788063982,6.214692764508295,0.8390272868089403
1.2,5.370162549780395,6.380174503166804,0.7961372966363807
1.25,5.416521527999398,6.51242062690006,0.7910246453000536
1.3,5.454378641294139,6.62951264344892,0.7677537267673983
1.35,5.453669724872911,6.76112862073786,0.7114510271195982
1.4,5.428741809700567,6.892846533527196,0.6713657403195914
1.45,5.4017621499696435,6.972845327445491,0.6157488716691947
1.5,5.368535461623638,7.0785688274767615,0.5575667616380663
1.55,5.630623210260964,7.655369635156466,0.4361417806103256
1.6,6.179856091136711,8.679576911345405,0.11701925358685279
1.65,6.791939366359034,9.434780396347033,-0.23805086726334826
1.7,7.261034749508728,9.710483657412539,-0.4342099576674605
1.75,7.580439079228779,9.68771855564426,-0.5622374801952208
1.8,7.504386709345049,9.659335533376417,-0.6172543603891596
1.85,7.196242708831205,9.905430790271426,-0.5065234741909052
1.9,7.030693165207364,10.398097470733184,-0.06911298701397489
1.95,6.91080641158748,10.671178807382587,0.5755025537341906
2.0,6.90587606975004,10.774698456003625,0.9324121014063668
2.05,7.30821741966281,10.910333756489038,0.5927934061274438
2.1,7.748073897916745,11.023860333554861,0.18939066191512874
2.15,7.85244319726131,11.014406120205152,0.322899384666698
2.2,7.977655029449109,10.985410685415534,0.4996925180174367
2.25,8.190315188826302,10.923796392146604,0.381221391440264
2.3,8.324539360556056,10.713682256567303,0.37246085712821253
2.35,8.174559365643294,9.97971560216234,0.8438804534912414
2.4,7.790241088025716,8.902611069214656,1.4614140659542525
2.45,7.46996044072056,8.0379016998757,2.0128974320058806
2.5,7.344153831922928,7.244446117762669,2.7186665197780244
2.55,7.409228150420863,6.462940078379837,3.3375371714266415
2.6,7.65288548324686,6.000539309753487,3.3983448690093634
2.65,8.030953174527093,6.136025429138255,3.0931237717032083
2.7,8.387290837772188,6.7801637061229325,2.9218439762779247
2.75,8.574933296511391,7.69141936443239,3.014174985951074
2.8,8.456261190125156,8.706265272928967,3.2633292972606576
2.85,8.210805600428301,10.008560251725266,3.587937447118222
2.9,7.932221195627811,11.697371937182572,3.904456777033441
2.95,7.488195666346766,13.347896110521615,4.192711716845657
3.0,6.809635386169194,14.569031552158256,4.52467606326194
3.05,5.776730033523629,15.581999071314863,4.96524793478169
3.1,4.507721653830887,16.342402565079144,5.645533458376012
3.15,3.2971154686205675,17.011768925339826,6.213998248245964
3.2,2.1544370919058484,17.540907865922392,6.411408536398846
3.25,1.0828330779833535,17.80589200919635,6.572529560411052
3.3,0.3759693624537179,17.881672787985767,6.369722420183791
3.35,0.13042393922582146,17.7771910290871,5.602983270502803
3.4,0.16196084026674765,17.366036398807168,4.761445608342024
3.45,0.3799638513416724,16.3103928995229,4.432299819979592
3.5,0.7214551818185923,14.868298291651643,4.505446852131427
3.55,0.9978377387105508,13.38161865954049,4.619671561659788
3.6,0.927224109969062,12.21175407925098,5.054839231661849
3.65,0.8883959969321228,11.334882331312338,5.634704948085806
3.7,0.5201263607089476,10.026988511249012,6.0341685449812354
3.75,-0.46483325699256034,8.244888209706115,6.260942805436681
3.8,-1.4135523021070024,6.545811808352714,6.320518116755931
3.85,-2.006770041205194,5.139314994705576,6.471414668620738
3.9,-2.6377467126135654,3.5198602846772182,7.351651670877302
3.95,-3.131077621461634,1.747050586006109,8.613321001980951
4.0,-3.1767387475647695,0.4388916552163453,9.115282771873638
4.05,-2.947277050612636,-0.2529891088090107,8.955452036420533
4.1,-2.6569945065279703,-0.5729683797062083,8.981339236455968
4.15,-2.38986062299638,-0.5738663243521783,9.418529435401027
4.2,-2.2696031748471874,-0.3899838765554337,9.915223243757126
4.25,-2.2271728977511476,-0.31132577339816203,10.19326816807606
4.3,-2.1857719676793197,-0.403627846916508,10.108510340308108
4.35,-2.4439107226861903,-0.6102137925846861,9.430172392271308
4.4,-3.2431347638221086,-0.7067921606400089,8.678329443549506
4.45,-4.83356214839282,-0.014761332645634602,8.547900350948911
4.5,-7.516091260722162,1.7412402860041847,8.357636562472102
4.55,-10.260293315396341,3.697912094068014,7.065838155312462
4.6,-12.117584114303915,5.323840196494617,6.269800223606206
4.65,-12.125164097604548,7.468244256398211,6.529654999007736
4.7,-10.693650175647326,10.300308476203963,5.934910971820655
4.75,-7.828578452959318,12.514732500577754,5.489324973133552
4.8,-4.618692040524297,13.884094395494042,5.2890176058761025
4.85,-2.7841767456011755,14.232982295207373,7.0249748690468286
4.9,-2.1925455251974806,14.112200957296512,11.5530201062397
4.95,-1.5019758024838494,14.625737558262415,13.001830462078392
5.0,-0.516495588094364,14.94949553319261,12.442856159027425
5.05,0.32264078407109537,14.843993333084072,11.555777076306041
5.1,1.289820232826627,14.910276593065431,11.473095373965663
5.15,2.0697935796181413,14.930432706259515,11.086562571144485
5.2,2.4049090939348594,14.689945847827289,10.815784294569012
5.25,2.847875466750567,14.427854318099529,10.511687640536806
5.3,3.2596389161681403,14.164066249889736,9.883636965219157
5.35,3.4457660003633217,13.793632585001307,9.423826705550258
5.4,3.5839657512016942,13.421388838300139,9.052525048729002
5.45,3.729269583788515,13.146679496593805,8.504371085045138
5.5,3.774528345946282,12.949879892971307,7.949009998350298
5.55,3.7728490534431685,12.781116687612858,7.635289540700261
5.6,3.747473628462132,12.654882111427016,7.523525120526957
5.65,3.6449570503093414,12.582337614347978,7.397230127684501
5.7,3.3846052166685783,12.525604634735194,7.062188299173038
5.75,2.944790802054991,12.624121455859687,6.537392854973206
5.8,2.203089190382974,12.731381395483163,5.974581029924673
5.85,1.587858212566257,12.650937172969991,5.762239979340906
5.9,1.3075217842834572,12.351396594933858,5.9806607002093015
5.95,0.9792185493264041,11.940084477344566,6.214905440069748
6.0,0.7343723057247986,11.513843858554816,6.557751690949486
6.05,0.716677739868971,11.381939455360659,6.909760657691422
6.1,0.7595004321006038,11.711872607859803,7.1639025968852055
6.15,0.7409625651045424,12.519955960560232,7.179654084714899
6.2,0.7685115346606418,13.224247366045578,7.1091331367222
6.25,0.778847121668758,13.520284536324828,7.0229186265203305
6.3,0.6969619875520738,13.627425399704569,6.804033771963571
6.35,0.6004678828363633,13.626325182146308,6.644459384228009
6.4,0.6326427972386792,13.517156689524844,6.733587619970013
6.45,0.698090685131165,13.367486328406324,6.829195504177528
6.5,0.5825900454459348,13.267323045748943,6.783570416551233
6.55,0.41507403054985487,13.160552264961357,6.669912996963523
6.6,0.13464145933933375,13.097685637106714,6.396992593288996
6.65,-0.22872113314171694,13.02963959379214,6.092133162087193
6.7,-0.6793742300126971,12.935199668957033,5.898868951134745
6.75,-1.2354887059083404,12.799196818449596,5.814477931422625
6.8,-1.7701046012239954,12.659096215025341,5.872716670640962
6.85,-2.2506109585979104,12.481645594828382,5.960372707017705
6.9,-2.468464935264994,12.606018932993308,5.926037789819964
6.95,-2.534269553532162,13.001796284569238,5.7968808479059195
7.0,-2.59189706985568,13.151794175043424,5.589987446399038
7.05,-2.606215547233338,12.983992728068586,5.396778856961263
7.1,-2.5328785165103733,12.761749999746227,5.312580079185851
7.15,-2.358284796018676,12.633165321855131,5.316765778741681
7.2,-2.0815949353478373,12.544537969040634,5.350410611234932
7.25,-1.7396711498281316,12.512280854565216,5.276505059781998
7.3,-1.4195582085952545,12.439507456107952,4.93140514119567
7.35,-1.1832388241407343,12.404172865753981,4.300457077212896
7.4,-1.204500540329817,12.308501818449056,3.6005747158825545
7.45,-1.417485802778736,12.164009972514162,3.036647494788354
7.5,-1.6963643833167439,12.01150218216922,2.7975680721298106
7.55,-1.9363679266047773,11.857603550162533,2.9049312437910353
7.6,-2.116717945307002,11.610346280257728,3.25583378336314
7.65,-2.3227751177302802,11.35617766281,3.5764289207547497
7.7,-2.5305624664644513,11.152714414517023,3.769335087805229
7.75,-2.61942847113951,11.02216364447599,4.030592303644472
7.8,-2.5344762246656316,10.839872654425271,4.324004943853314
7.85,-2.410127722584499,10.507898391320843,4.630255312948441
7.9,-2.339845659157706,10.015887235719505,4.907557976904837
7.95,-2.1882795961403994,9.374284637360292,5.109670492588806
8.0,-1.9852785730774372,8.758906442100788,5.294046691073573
8.05,-1.8037072959697318,8.205125392157298,5.510810854858085
8.1,-1.5874798695345949,7.800276223162163,5.7563986266024
8.15,-1.3577305463970564,7.482162083622751,6.094628264302113
8.2,-1.152065095545673,7.340983412542876,6.507841040459009
8.25,-1.0044246587754793,7.34901597337733,6.947447587479078
8.3,-0.902967394615607,7.380738783734343,7.415244321499232
8.35,-0.8394978043485347,7.420201855987793,7.785793685864893
8.4,-0.7038420937403808,7.4171194551742525,7.92770374500944
8.45,-0.5852402367535551,7.550119388635406,8.016362818180847
8.5,-0.41288490810890355,7.611719760217498,8.142218478164924
8.55,-0.2780264266163017,7.6598104032719805,8.302144457929037
8.6,-0.14819818845529353,7.7353205658931055,8.434639113522195
8.65,0.0394840430690033,7.823015836809026,8.436913037048226
8.7,0.2715465504283859,7.935740431602907,8.389628006534107
8.75,0.45972027294330997,8.047575032587591,8.336015126671962
8.8,0.6323144987930365,8.171032691115412,8.27904976309825
8.85,0.7470453199105607,8.27609204037816,8.25675436319201
8.9,0.7199878405375139,8.409865382096113,8.223256005542567
8.95,0.654555932426813,8.563004565913568,8.204622723343043
9.0,0.47761740173130296,8.69812492407633,8.191960075046017
9.05,0.2854673197968557,8.83117797619692,8.076185884487197
9.1,0.04183593972181867,8.911787286266982,7.894963917897592
9.15,-0.1922470611750341,8.9584012709098,7.728279933082564
9.2,-0.4268651918175978,8.954543844615047,7.5715452091353095
9.25,-0.7627291728387199,9.088327840471612,7.495011456017921
9.3,-1.0960425737834085,9.337206093324953,7.505340815297948
9.35,-1.4260927077343395,9.571883845541981,7.606800941710374
9.4,-1.52965107030006,9.746512348467157,7.826183843407576
9.45,-1.4549051711588827,9.850213460785335,7.7968761341300095
9.5,-1.4614138888922203,9.759564946911174,7.3770168600356945
9.55,-1.4599496987312157,9.590171885039899,6.943131416696011
9.6,-1.3909001670409529,9.555937023738629,6.712708829623605
9.65,-1.240394490527402,9.701347615682508,6.635224088644956
9.7,-1.1226386718830443,9.890689343950056,6.81758040462704
9.75,-1.0633511190557927,9.954374964895992,7.181006965038363
9.8,-1.0112914390783656,9.820256569220293,7.341572853599852
9.85,-0.8878216065174517,9.764417217562148,7.357440784243642
9.9,-0.6890797559648166,9.718064891873885,7.42197157549089
9.95,-0.5286808923467561,9.49637437926302,7.510489336664383
10.0,-0.6354549595006578,9.40113821674228,7.514146842668058
10.05,-0.8920744489508807,9.482272240207827,7.350130224071379
10.1,-1.0318013419519372,9.56686934091043,7.154606888944569
10.15,-1.152007843188981,9.66030107832935,6.998151416252056
10.2,-1.3316720432116183,9.640603240585008,6.89056004586974
10.25,-1.5680910256816045,9.520950136179904,6.7998018416383035
10.3,-1.8766546870745549,9.404122342420834,6.75690364429874
10.35,-2.0767473587800844,9.344743588871399,6.883683283479208
10.4,-2.012840547016648,9.348930908338929,7.099860762440131
10.45,-1.7370917895591482,9.378199863982537,7.1809313438207045
10.5,-1.3919401300066963,9.469805032980823,7.028795624169535
10.55,-1.1032895431272083,9.537198130646098,6.776764105299157
10.6,-0.861713125131032,9.61219901828959,6.584857790147315
10.65,-0.6074474544867621,9.70761184392254,6.544029806445736
10.7,-0.31549986621344067,9.790073897012643,6.645326373518781
10.75,0.012811164178436408,9.894336623862984,6.673965462933241
10.8,0.14002944800002842,9.997673099416604,6.449996857839854
10.85,0.12370807327926761,9.986120886369752,6.144033926216882
10.9,0.15828377041742725,10.001328000162358,6.05851268866502
10.95,0.2777759172882021,10.114175905867803,6.243358401110758
11.0,0.3882158234435797,10.20003780677827,6.577389355504533
11.05,0.4283787317328984,10.15032480917883,7.018035778519702
11.1,0.3958251910038084,10.091875112408786,7.309549622664885
11.15,0.2957885934530804,10.220038817568959,7.313293571404275
11.2,0.17826871605412453,10.332277441834442,7.186876326927211
11.25,0.20141453427915038,10.453423878814693,6.986973360756551
11.3,0.37726220071123123,10.568487987687877,6.693938110529186
11.35,0.5675207129335383,10.529380153218133,6.289504481824069
11.4,0.6450993802145423,10.356950132507407,5.842285426158829
11.45,0.5662440572983972,10.229603001908496,5.5370125030872135
11.5,0.5168036984523857,10.26094738071071,5.607951316136693
11.55,0.573926306946718,10.293869435429535,6.005507245823222
11.6,0.6167219787211602,10.245764554004124,6.439270124331446
11.65,0.5433606179125278,10.11280767071093,6.654861670434647
11.7,0.4756478433100476,9.956157930929502,6.587928804933889
11.75,0.46126216567110195,9.92355661357904,6.47681419185413
11.8,0.46982753489126494,9.88298790679116,6.507798190884463
11.85,0.4283731945334439,9.753002899407027,6.6393383897575164
11.9,0.27504671849778284,9.683910603959077,6.723642513423003
11.95,0.05945740415168349,9.670427302808868,6.70235842616928
12.0,-0.21084602885394169,9.544840922254854,6.6874362340433615
12.05,-0.5809545834537783,9.18974973970555,6.824705682235302
12.1,-0.8010127607016723,8.69242389130002,7.072769870474156
12.15,-0.8701881575106277,8.220549384327272,7.329175045641822
12.2,-0.79922822328034,7.774092018389168,7.562108631652391
12.25,-0.6383755630937333,7.386478714041793,7.720098383711073
12.3,-0.6060674627417096,7.118254367610006,7.774033021775279
12.35,-0.8957936225337579,6.919161188945029,7.812895628150113
12.4,-1.371714420161976,6.854296718868904,8.015712337656678
12.45,-1.7948430964517956,6.982918609206422,8.269870885237681
12.5,-2.237257528416141,7.199569500587571,8.423235872665838
12.55,-2.6592958600933434,7.446367787070824,8.38917727335888
12.6,-2.9018875820440364,7.727918483282927,8.2637455431486
12.65,-3.0295934178244046,8.11205647372831,8.19087838121884
12.7,-3.015515058777576,8.51147417042569,8.214904452912231
12.75,-2.922783605262521,8.871968371965929,8.286223809138958
12.8,-2.8067461099608733,9.134658299872502,8.251710848542805
12.85,-2.755922155180119,9.268382975964867,8.06887598828677
12.9,-2.736691351533323,9.452137897129461,7.90337475979843
12.95,-2.8376782963235865,9.641386056477426,7.851676210292815
13.0,-2.911006114473515,9.849051342277589,7.942294217798307
13.05,-3.056671300747039,9.984229196993935,7.961273844751535
13.1,-3.237556909239043,9.983855394015318,7.741487867759443
13.15,-3.2222513263657726,9.887074805688913,7.442956521062702
13.2,-2.985757823400464,9.90081545409991,7.392610297411271
13.25,-2.4750354017354725,10.012580306940029,7.522307736945338
13.3,-2.0196282861529866,10.083639518731035,7.711360857709298
13.35,-1.7540871447257667,10.057903760059993,7.861004312283682
13.4,-1.611827795228825,9.976279243954625,7.7884048859494355
13.45,-1.5314011564568404,9.917395621905117,7.571395580989583
13.5,-1.5201954406999232,9.828108096221907,7.497162451187037
13.55,-1.5000685742183029,9.667812226850392,7.529212192091612
13.6,-1.4149967119647384,9.52786342276434,7.599075019311035
13.65,-1.3935991425011567,9.56642376581701,7.7269188677143985
13.7,-1.3507077916821493,9.651382077095416,7.90829637762373
13.75,-1.1742749396980026,9.680398263730748,8.081935493415985
13.8,-1.133379384642595,9.75419160510668,8.189065554862836
13.85,-1.1470343943956154,9.90194777426168,8.31487503586247
13.9,-1.087870409957102,9.964183233416305,8.41271050117116
13.95,-0.9686747049555943,10.013813631060593,8.405333928450114
14.0,-0.7343911922043124,10.11538135158535,8.278227422446887
14.05,-0.48998151060171247,10.20666528162746,7.963295531199208
14.1,-0.38710986746741877,10.218001289325057,7.485302403296782
14.15,-0.4215204623063009,10.25441707882062,7.099195741646198
14.2,-0.42971145415923095,10.313444312746954,6.9374174313744605
14.25,-0.4883580088781056,10.281339881794405,6.965070490267465
14.3,-0.69003575780563,10.155360509129137,7.133496764271923
14.35,-0.9632218201293874,10.078054256121002,7.2535324736808295
14.4,-1.314981795790665,10.055400125616954,7.254999169882127
14.45,-1.6914300501613724,9.965562683671044,7.172962100515153
14.5,-2.1635738269289937,9.849642136959888,7.118056831105145
14.55,-2.52230232426809,9.675982199805775,7.206459960657698
14.6,-2.6444333172612313,9.40050724959375,7.361473601568879
14.65,-2.678384754539039,9.034843032023756,7.5244266397699935
14.7,-2.700453002645491,8.659069814695258,7.748758657058815
14.75,-2.573154966222475,8.50147574551798,8.096691670255804
14.8,-2.2571871708508455,8.914263583532057,8.545342398552382
14.85,-1.8513430977858243,9.668932286842741,9.12119811406018
14.9,-1.2027864510856014,10.427946423971603,9.803011667041568
14.95,-0.36506700162610034,10.995770651077496,10.428998221794886
15.0,0.43686247195673905,11.20033728796397,10.834282879347784
15.05,1.1734997025719003,11.133697458662496,11.093329544755239
15.1,1.8194901643337664,11.035401068423159,11.123109875252567
15.15,2.302147215934142,10.967581427474363,11.175623140916944
15.2,2.513704115579796,10.92873359684074,11.515503358389182
15.25,2.431144866022239,10.95960175708449,11.726450661652185
15.3,2.1503212689115565,11.046918658197432,11.407730283934425
15.35,1.7559861390965836,11.218312082712265,10.874534047359472
15.4,1.151890451693176,11.255181635010851,10.499025153151779
15.45,0.5172081331152041,11.313800374498364,10.281172391800522
15.5,0.16580561766086999,11.582701486971821,9.926122338448414
15.55,-0.2898729817804327,11.973169965184434,9.522511950630953
15.6,-0.9828159982762189,12.2450957420817,9.306448120012512
15.65,-1.5357818651628217,12.387483414790639,9.236535367361679
15.7,-1.8978981222295388,12.524469275025806,9.255898439082614
15.75,-2.299322824030829,12.518912717710908,9.579336565026418
15.8,-2.71476639573068,12.412983526864409,10.153015552366801
15.85,-3.031559247969503,12.236107990656174,10.695158883187359
15.9,-3.386020020610315,12.122912303889773,11.1928974426906
15.95,-3.7375110175237616,11.991862014482143,11.777161685310508
16.0,-4.060832799395272,11.899173526551957,12.332589100956456
16.05,-4.3479811587803185,12.01048027594208,12.815162386908833
16.1,-4.496848180200156,12.183148529032913,13.229892578970723
16.15,-4.498837664298315,12.18954168285285,13.592084899558282
16.2,-4.426997909560154,12.1316090148391,13.762699078791119
16.25,-4.298208465385558,12.070669208849774,13.823949613552605
16.3,-4.062352597085675,12.208319000872324,13.796565728117228
16.35,-3.6700380484961745,12.390733442081796,13.602985589941152
