Time [s],Flexion(-)/extension(+),Abduction(+)/adduction(-),Internal(-)/external(+) rotation
0.0,-61.99516090720269,7.639455902975326,-22.017493713416634
0.025,-62.00089393524319,7.673414309557533,-22.325402491024096
0.05,-62.06444338184165,7.760059206917987,-22.68739374210015
0.075,-62.244128689774385,7.722548785985227,-22.859656069694296
0.1,-62.52826640585123,7.458538578988668,-22.79151727106466
0.125,-62.73288318258724,7.264293058114949,-22.72604944590813
0.15,-62.81294778400909,7.302975035115745,-22.733632630193224
0.175,-62.83411721010504,7.508432781616476,-22.76736477581864
0.2,-62.845591508065255,7.732434901631911,-22.76273872615203
0.225,-62.82160002070018,7.85874552678952,-22.62625441918716
0.25,-62.64972126119383,7.900214600285731,-22.38801447791296
0.275,-62.27160694969987,7.867191987474805,-22.185324122479457
0.3,-61.88348154527282,7.714996098931046,-22.048842133382713
0.325,-61.50023741440466,7.593250410277685,-22.085317633150698
0.35,-61.06556632392427,7.630118381636871,-22.354483145988162
0.375,-60.62023115814788,7.742706277962408,-22.72697846590096
0.4,-60.22849144811517,7.853853129699526,-23.054518792298094
0.425,-59.89317567687086,7.981974092095981,-23.307938331863017
0.45,-59.56686264857465,8.115499337172235,-23.438433985770168
0.475,-59.192252685156724,8.212108095952457,-23.328082256421173
0.5,-58.74160610464908,8.24448990180443,-22.937844406601354
0.525,-58.238791557724916,8.18315838325239,-22.356221528852604
0.55,-57.73604624050925,8.056848371501696,-21.73156613150322
0.575,-57.32333085509684,7.965217125613628,-21.14022321602557
0.6,-56.98647657838495,8.003986633522114,-20.641841778511633
0.625,-56.48168375846536,8.178756780459116,-20.344315450320963
0.65,-55.7436128343949,8.366170192652113,-20.3081520918239
0.675,-55.052137815997625,8.472378682555743,-20.521200596500965
0.7,-54.6065552549546,8.52162969485747,-20.882705453264833
0.725,-54.3927498047269,8.525426057314624,-21.244919032429856
0.75,-54.405839770587114,8.464234805793383,-21.652969483991637
0.775,-54.66931607417297,8.366582855215947,-22.274118964882767
0.8,-55.25979099000804,8.233712111454999,-23.105929547195956
0.825,-56.27521036553609,8.032545677195404,-23.91247116090505
0.85,-57.616216998709604,7.804445720414869,-24.535729434555243
0.875,-59.101993779709524,7.700687085488135,-25.00840041703688
0.9,-60.63180187886199,8.004366401560702,-25.425431562522437
0.925,-61.94253976443635,8.822097402817201,-26.04148146096677
0.95,-63.006172196769015,9.748403192043401,-27.0098106849779
0.975,-64.498296044775,10.568932343120641,-27.952213925020242
1.0,-66.6297169195611,11.488503753560735,-28.621551624827298
1.025,-68.83722888923906,12.61014993688551,-29.088685930636306
1.05,-70.98282398585508,13.958504934142637,-29.32158464837508
1.075,-73.3623624603117,15.546253033165382,-29.200576156502976
1.1,-76.11626075482118,17.339643485780975,-28.560199786116485
1.125,-79.2620272332018,19.272029085152415,-27.215789677594962
1.15,-82.818533799175,21.261124502056365,-25.081337281788844
1.175,-86.61371959863853,22.949939481379495,-22.265684986036636
1.2,-90.29862573377578,23.389962541465128,-19.067844965454125
1.225,-93.66987825960886,22.26400634258502,-16.081532146706774
1.25,-96.72154736752053,21.228475376917036,-13.936176051337844
1.275,-99.438466480904,22.046616850185178,-12.704272717788347
1.3,-101.77274200659747,24.25208896038702,-11.80447444566906
1.325,-103.73373035220006,26.118849173730112,-10.65171753925015
1.35,-105.3527815258543,26.851825281580886,-9.311771963505754
1.375,-106.60815011275555,26.92457387191721,-8.272866423457844
1.4,-107.46554603373043,27.135097920378254,-7.741741350060013
1.425,-107.99030725213974,27.766949318474783,-7.59036056632902
1.45,-108.30293871989667,28.487560943845974,-7.827449884969578
1.475,-108.46266667905036,28.90300428922368,-8.52464160804434
1.5,-108.47061735032251,28.9666554507654,-9.49224167889267
1.525,-108.35061766075665,28.852698138484275,-10.35694175642233
1.55,-108.12910806197534,28.76023368003188,-10.872458280490669
1.575,-107.79081298424484,28.729813457009122,-11.11952020095825
1.6,-107.35093860575833,28.54664745926249,-11.322868985449288
1.625,-106.8777238165442,27.996175276944797,-11.477908834419683
1.65,-106.38382115640367,27.08438641514098,-11.462882097373136
1.675,-105.80061017962254,25.915970817058714,-11.314006722347214
1.7,-105.06528029898482,24.695113182721357,-11.11811656660987
1.725,-104.19764496924549,24.094092720343706,-10.994016706939707
1.75,-103.21475491023097,24.524628487680946,-11.21228148557114
1.775,-102.10782640605551,25.15726620997643,-11.77957253746699
1.8,-100.91491285817249,25.2008852047483,-12.23752864115893
1.825,-99.64105296290766,24.96237266750061,-12.323139000427439
1.85,-98.20928825336605,24.85647115543919,-12.18736599149709
1.875,-96.50801979971595,24.831152122421802,-12.00873588295785
1.9,-94.52961528127886,24.82734095228208,-11.89621053554769
1.925,-92.43347161318849,24.91442731605205,-11.92770662494658
1.95,-90.4321210629437,24.97183218937383,-12.070843426697182
1.975,-88.60741259252731,24.7336895820351,-12.191446602738129
2.0,-86.85849068562354,24.08912055516155,-12.201818372560535
2.025,-85.0638348554854,23.062625078124167,-12.02492309852761
2.05,-83.23600851776214,21.668648019116475,-11.684328090212121
2.075,-81.51052586518435,19.99596105184731,-11.490681780967645
2.1,-79.91658661314719,18.249093958067807,-11.688822619756523
2.125,-78.31534400839142,16.86111708246945,-12.125696203207605
2.15,-76.50948978631384,16.294724377976426,-12.753932179585924
2.175,-74.2632771215514,16.356911984944272,-13.864700082811865
2.2,-71.4150215791791,16.178582202216674,-15.289716306179464
2.225,-67.95623115039798,15.102493049432798,-16.243105139371075
2.25,-63.93880257012917,13.265398622280474,-16.266854536251973
2.275,-59.25440745820438,11.391569207945109,-15.779852532495338
2.3,-54.14053872922617,10.14110820244641,-15.597122286735605
2.325,-49.558840127610225,9.70503754903014,-16.277180292017
2.35,-46.06531846766878,9.835151974441802,-17.73430957679363
2.375,-43.41699678777057,10.224598412292247,-19.39579563631496
2.4,-41.69399691126188,10.716230018584518,-20.766480851574865
2.425,-41.23924930424964,10.996469562327482,-21.309273070009326
2.45,-41.68185356957244,10.615231507627616,-20.319031369369135
2.475,-42.19081649691718,9.562499637671886,-17.831642595407672
2.5,-42.220446138448274,8.22146178200266,-14.896830677703282
2.525,-41.723246130860716,6.943779222846314,-12.482180161076526
2.55,-40.72382794821517,5.856987901106701,-10.634084265587738
2.575,-38.954577474973355,4.9797666986023215,-8.93716403480559
2.6,-36.13735139614549,4.518082272215942,-7.635930574030893
2.625,-32.41285654197397,4.766912768721794,-7.434383446737201
2.65,-28.10235590081666,5.661884901779776,-8.432208995260279
2.675,-23.431025409921414,6.715985427098489,-10.07256602320239
2.7,-18.62912301354487,7.432692535323317,-11.667955861396784
2.725,-14.002429250283523,7.600276922946142,-12.596574081355643
2.75,-9.86088403110943,7.213189970681045,-12.40625815147535
2.775,-6.277605169515386,6.432831726146412,-11.045666923165712
2.8,-3.1938243387728904,5.490735538347079,-8.737531266485261
2.825,-0.7987263281495687,4.4903191181317235,-6.043058254744848
2.85,0.733363679582022,3.5819828757287957,-3.993252983275202
2.875,1.5934152136414617,3.1049122961610323,-3.5886822463668353
2.9,2.055181903926925,3.122668734542454,-4.984947426787619
2.925,2.3262801622781186,3.1098704170125533,-7.287805385402941
2.95,2.4621832404031627,2.5176810345619254,-9.289608943698378
2.975,2.017854895513005,1.3994594289127307,-10.025832692513001
3.0,0.47158795042616036,0.3895685229305736,-9.563228902851272
3.025,-2.045417407442365,-0.21729112865852507,-9.202764436736292
3.05,-4.91252500108877,-0.8602079739423247,-9.404150198419378
3.075,-7.33760933180354,-1.6188321675172603,-9.568672936833734
3.1,-8.720757110594803,-2.099189219240399,-9.286809819027996
3.125,-9.195813015862383,-2.197340123430103,-8.805860417562103
3.15,-9.274537120361424,-2.161617487145367,-8.984954336475962
3.175,-9.053032195363068,-2.2013383371777735,-10.457192588740117
3.2,-8.272661750742929,-2.285835974247033,-12.563666096547202
3.225,-7.020525296856596,-2.4220559535429738,-13.96127660394268
3.25,-5.660175474126547,-2.6428206335703814,-14.152553654995463
3.275,-4.403709851632515,-2.9537475077065007,-13.597995191758693
3.3,-3.305552473486478,-3.2154023257215973,-12.902379463316828
3.325,-2.5054038522558075,-3.3089427188817653,-12.405482189806762
3.35,-2.1465542344818793,-3.2925156672150138,-12.241983315046808
3.375,-2.2233740987111004,-3.2888297514385116,-12.399555748679386
3.4,-2.558717875521094,-3.3374618691588815,-12.742236524024786
3.425,-2.8486701500678495,-3.439608246969143,-13.015525647352053
3.45,-2.9718746127326736,-3.6126310109075437,-12.990995575779403
3.475,-3.042014685256326,-3.7836476935720036,-12.744646892476142
3.5,-3.159887523498836,-3.8431380232520373,-12.445142234505619
3.525,-3.4022708745172685,-3.742346939252425,-12.199141940959526
3.55,-3.864546144781384,-3.464483599175392,-12.034287311331756
3.575,-4.388217209162063,-3.014598040928316,-11.844324612516274
3.6,-4.6877976808880755,-2.4704154116110915,-11.482318894664385
3.625,-4.768664680367222,-1.9176252373699652,-10.910146983479253
3.65,-4.801211266216788,-1.3647267874571813,-10.216378052852367
3.675,-4.868830495409718,-0.8086244565411546,-9.406316041347775
3.7,-5.0269665363969,-0.3293674325282882,-8.533565585441274
3.725,-5.29463254358606,-0.017961906372565315,-7.824337186338915
3.75,-5.61054836641271,0.1451810668445701,-7.519016168085932
3.775,-6.0252004524858345,0.2042245912434026,-7.844180635596892
3.8,-6.756046770837051,0.17116980115390673,-8.851409306485358
3.825,-7.9205905003373,0.09527998597418476,-10.222046139608663
3.85,-9.25788889748249,0.06497045561841225,-11.485693556417583
3.875,-10.314914547268947,0.12254286217911221,-12.288288964245663
3.9,-10.795016615769,0.17614361213509255,-12.363773718420845
3.925,-10.740877413415955,0.07170984619788483,-11.65890889556847
3.95,-10.47739086204474,-0.34161658989314847,-10.66832584057125
3.975,-10.25697497577279,-1.0624081470609135,-10.216439612259776
4.0,-9.997531287849116,-1.7651601743957792,-10.563304801593489
4.025,-9.460597227145453,-2.1063036491812435,-11.14655643253598
4.05,-8.578030663642645,-2.070846905036001,-11.532463018949954
4.075,-7.7356260144121265,-1.8092034716893024,-12.085806542576922
4.1,-7.418647276440475,-1.369363294689179,-13.324256020998302
4.125,-7.705413496775718,-0.9167498986583249,-15.021727421000154
4.15,-8.382070681779664,-0.7341440947935266,-16.182180050730118
4.175,-8.874798617043247,-0.5652061206075079,-16.127715441378616
4.2,-8.73159225023097,-0.2780992895588726,-15.1883432359961
4.225,-8.107075132346147,-0.2531754085055122,-14.128995733597499
4.25,-7.373634169800493,-0.6144963251823709,-13.351512426558566
4.275,-6.596285369412646,-0.9988746310588087,-12.860399113032374
4.3,-5.786315665362144,-1.1197331221543725,-12.63751071999276
4.325,-5.082758784502072,-0.995504551419505,-12.679029436508092
4.35,-4.4242020618061755,-0.79210846070233,-12.920027309080396
4.375,-3.5703957281104994,-0.674147862743215,-13.326543488992973
4.4,-2.4863995441094326,-0.6881690360351794,-13.868038499411421
4.425,-1.3542143123238706,-0.7188828618400813,-14.400843707792427
4.45,-0.3188610253223563,-0.6427474873930104,-14.664404480352
4.475,0.6187117094827816,-0.43760671764633413,-14.388616276104791
4.5,1.5207695007554365,-0.11909602142380347,-13.384718079300347
4.525,2.3448187995476304,0.3214988209012671,-11.838283082957915
4.55,3.0725009086739514,0.8419381251271595,-10.274501030187908
4.575,3.676126071909306,1.1900346838840516,-9.172524228711834
4.6,4.0257006597765255,1.2463211757762778,-8.80709323632755
4.625,4.020781815761826,1.1409127250429292,-9.03504259635299
4.65,3.633827346482542,0.9475292319846845,-9.505581390552042
4.675,2.739022262863011,0.6744225126550453,-10.163353871055774
4.7,1.2603332892450843,0.39141896577182106,-11.116785984042219
4.725,-0.650914333603643,0.2049418397075085,-12.271015363768134
4.75,-2.5727486914691537,0.1697171316035118,-13.273172315115058
4.775,-4.119517251889364,0.2456852131056971,-13.883288299584047
4.8,-5.233434184493828,0.288987247475747,-14.257661099346135
4.825,-6.083545657289983,0.21903814367572122,-14.569774337680881
4.85,-6.882698383331027,0.14158378176773942,-14.742525164961382
4.875,-7.859524354489276,0.1587805680029558,-14.751905036435085
4.9,-9.046894195837018,0.26555893516080753,-14.78691382492514
4.925,-10.264430599942482,0.4030113216394651,-15.084385472582627
4.95,-11.372011060117172,0.4986563268224666,-15.686611734883854
4.975,-12.361368439189269,0.5450305350625118,-16.548811669763108
5.0,-13.200308915162777,0.6421129340843637,-17.69670500312092
5.025,-13.7893395388774,0.8917303075239866,-19.07020071791267
5.05,-14.1333376691288,1.297066752496948,-20.462062265044523
5.075,-14.475825969482583,1.8255944719411554,-21.663579296813353
5.1,-14.963650935380738,2.487831688023207,-22.604409618099943
5.125,-15.396340967390758,3.194096123113776,-23.22274346582524
5.15,-15.504233448565303,3.7479121319629214,-23.286102906739977
5.175,-15.048504354228426,4.064772153992768,-22.438724369876546
5.2,-13.960291523740667,3.7798762203876475,-20.518476019815807
5.225,-12.647996061812695,2.3554439092669135,-18.096990689525693
5.25,-11.90977163051681,0.2715664483673893,-15.880889541169486
5.275,-11.606905324173368,-1.466794293677674,-14.564825740268637
5.3,-11.103800046093918,-2.3917998192922387,-15.108658814534225
5.325,-10.195264493948683,-2.986916733474966,-17.337375240246715
5.35,-9.164197516943188,-3.7524585166514925,-20.11933356510397
5.375,-8.35312578928187,-4.613034575018085,-22.428880525671474
5.4,-7.746339511763578,-5.352787677773934,-23.79936970338233
5.425,-7.1296854095807,-5.915082449814336,-24.19906479201829
5.45,-6.501998240130455,-6.321669418621015,-23.9161965448725
5.475,-6.085540560658864,-6.571260994342,-23.337443832628402
5.5,-6.0426450533396965,-6.653508866170417,-22.73854554253227
5.525,-6.19088365192142,-6.631966293909076,-22.253415108445093
5.55,-6.209164135747916,-6.6227563392352815,-21.875198937507417
5.575,-6.012671965369014,-6.635987910880307,-21.697134344606184
5.6,-5.654161726176415,-6.618540497026525,-21.92856513924549
5.625,-5.087173532826635,-6.622408859694336,-22.85531096625968
5.65,-4.005031407152651,-6.8280148479644,-24.494815492159475
5.675,-1.9870782663405018,-7.3335843706842425,-26.093560167459483
5.7,0.6785559125213627,-7.902140621452152,-27.010605473574046
5.725,2.98421603816037,-8.161839640383114,-27.02754254130157
5.75,4.659001980060143,-7.908936021082915,-25.978971792201737
5.775,5.9787552174652605,-7.309043611469883,-24.060390573011205
5.8,6.908828043417442,-6.823108042461692,-21.963198287107996
5.825,7.325832150788485,-6.598084478150659,-20.363388934371027
5.85,7.462204063749702,-6.389946547251619,-19.354309685617675
5.875,7.780515896332155,-6.103355016892712,-18.479924986728026
5.9,8.432301552052193,-5.868048967374941,-17.60877642380194
5.925,9.126837194098178,-5.778447666370904,-17.077490540115996
5.95,9.338566028894865,-5.794290436453468,-16.979664916623253
5.975,8.764184251373704,-5.808352627008128,-17.190370891578198
6.0,7.5099160916222445,-5.8375386595646885,-17.72811164366807
6.025,5.904439701817727,-5.9343214308460235,-18.75034367763409
6.05,4.3099584301570335,-6.062405156416333,-20.41401188655583
6.075,2.6118976397156177,-6.180606571762858,-23.12254481417273
6.1,0.6258155585882655,-6.29240083386238,-26.345511522611112
6.125,-1.2891809254555553,-6.46055054942324,-28.41486078548643
6.15,-2.837048658688092,-6.859671808962174,-28.9632500641192
6.175,-4.150596252760748,-7.690401231293637,-28.60477086169828
6.2,-5.263814815525315,-8.690173417601352,-28.027904148522175
6.225,-6.251100031671122,-9.20381776505742,-28.220002665628204
6.25,-7.430359429067809,-8.84751911510483,-29.793352157540884
6.275,-9.085148632922735,-7.75474453437087,-32.10203011329645
6.3,-10.666177120818787,-6.253137979205109,-32.89429238730867
6.325,-10.649544444256916,-5.316417813487766,-30.05131251131672
6.35,-8.433035293657245,-6.002852774544273,-25.00960000117812
6.375,-5.892798184867068,-7.77617181471859,-21.200393985061517
6.4,-5.040964805515193,-9.143096331585836,-20.410552210431135
6.425,-4.635245097551004,-9.626196135797391,-21.923309764629433
6.45,-3.336843966071132,-9.590046730221202,-23.662111729348364
6.475,-1.7471743637552766,-9.608486448327037,-24.50319442728143
6.5,-0.5243414898009678,-9.935884571203989,-24.083537730029324
6.525,0.3552880668601099,-10.224080849714847,-22.56456707900827
6.55,1.0485450512255403,-10.15111897581198,-20.6259262940981
6.575,1.6556638822575311,-9.952503493554802,-19.06324917489078
6.6,2.0717833093553333,-9.921534959248136,-18.265317259121517
6.625,2.242707707970827,-10.038461974278755,-18.18161095270421
6.65,2.197466575584339,-10.210017211685734,-18.591570327022563
6.675,2.0941557968311484,-10.292818981042076,-19.19461291295265
6.7,2.0652233085123464,-10.108856559060126,-19.834159170920174
6.725,2.1548029617689446,-9.754517774767995,-20.66469095318552
6.75,2.430072811623859,-9.3203362481667,-21.504996877539995
6.775,2.9407460342391474,-8.846558433767504,-21.896969364124203
6.8,3.595484821082896,-8.41705732183001,-21.662461049500312
6.825,4.32354066768916,-8.104987967411398,-20.890593345080536
6.85,5.076751628311577,-7.955186017663026,-19.757971573622005
6.875,5.651003457790564,-7.995091453323656,-18.678856194056767
6.9,5.841950200211369,-8.161904980121736,-17.989610393401716
6.925,5.796579836353275,-8.315085288232785,-17.848722642757522
6.95,5.728196421105536,-8.351820647948703,-18.183323718579
6.975,5.717632278031471,-8.262040812492511,-18.729710215592718
7.0,5.897999721045097,-8.151807413318526,-19.21269256887991
7.025,6.260203881492007,-8.113194968327502,-19.538331459962976
7.05,6.6124017261196215,-8.134788207338909,-19.80577379257437
7.075,6.870268273200801,-8.178017772990664,-20.143708311957216
7.1,7.053101653653839,-8.241553679610904,-20.601265198589665
7.125,7.162324288698885,-8.303597552069306,-21.138537480434856
7.15,7.21456599553333,-8.327997501524521,-21.668118889305827
7.175,7.322398468025469,-8.314841883880305,-22.011463362181914
7.2,7.543463838637934,-8.25588624222882,-21.970092985303797
7.225,7.768665627343444,-8.149106924351662,-21.625974416014458
7.25,7.875015177900807,-8.063346821243615,-21.300813782780914
7.275,7.818199237267381,-8.050168413970486,-21.175327010469378
7.3,7.628352945482591,-8.058638229060588,-21.202058704344147
7.325,7.385772737721408,-8.031546345923362,-21.318708145628275
7.35,7.151488678093191,-8.009362486087849,-21.493080176499515
7.375,6.956979864006468,-7.998870966597018,-21.67693057921398
7.4,6.802656225661562,-7.922153067223888,-21.86610022674807
7.425,6.675892382609026,-7.803437979865782,-22.120499141172544
7.45,6.600344744009256,-7.706647095421735,-22.38672096322859
7.475,6.613460225181085,-7.612107092278036,-22.582139513690638
7.5,6.646206063223089,-7.540729144465779,-22.802878070145773
7.525,6.6396497692784004,-7.509923568259158,-23.095882862089745
7.55,6.597475417693258,-7.456787742304199,-23.414867662809378
7.575,6.501215796511337,-7.375356154994765,-23.69930693869501
7.6,6.373606574197334,-7.301731365739427,-23.84552151501422
7.625,6.269824543981426,-7.236298824519994,-23.82184774400738
7.65,6.184323731556545,-7.213718738442761,-23.699435500236355
7.675,6.079190629671051,-7.273106830262888,-23.59610332154146
7.7,5.948945561635492,-7.391752933923026,-23.58533384116419
7.725,5.781922740490945,-7.525701571686881,-23.632799444306464
7.75,5.559768544857409,-7.595390938606719,-23.642988412534446
7.775,5.341733182238263,-7.5824363103425,-23.543769959996123
7.8,5.214334407259397,-7.541323153815141,-23.356585684684607
7.825,5.1928473859884186,-7.49805232973003,-23.17353120384028
7.85,5.227065787962184,-7.440791084393668,-23.062758406054098
7.875,5.271370839019521,-7.361456854988497,-23.031779204482785
7.9,5.32146602301197,-7.275402218166219,-23.030833425158534
7.925,5.39904401653602,-7.211499968471919,-23.054622177800663
