Time [s],Flexion(+)/extension(-),Sidebend left(-)/right(+)
0.0,-89.1476441761461,1.6774521421539401
0.025,-89.22642982433534,1.734466907178659
0.05,-89.29701527549558,1.8474164931237869
0.075,-89.32477767474359,1.977181188242131
0.1,-89.3366934810217,2.098346961327564
0.125,-89.32350567921412,2.2189858737972465
0.15,-89.22790032159651,2.3314415698872804
0.175,-89.01580362753774,2.4318735195194456
0.2,-88.75359727043453,2.517369089253229
0.225,-88.46392553047914,2.565183881652863
0.25,-88.1532553102166,2.6102960989812245
0.275,-87.9243126884936,2.6745261051458793
0.3,-87.66405263609026,2.8024956508688357
0.325,-87.33010578242083,2.931518157273713
0.35,-86.93984531025238,2.994513026515122
0.375,-86.47885461706433,2.9958425609210715
0.4,-85.96199654589418,2.956020474282046
0.425,-85.4964952618948,2.8927620041701902
0.45,-85.1847744159376,2.8503235224793486
0.475,-85.03788211413593,2.882917165997352
0.5,-84.95774471879172,3.032325092471221
0.525,-84.86862610394016,3.3285682737707023
0.55,-84.81802717770097,3.7830492950220194
0.575,-84.83405403869918,4.3235745804216945
0.6,-84.88660128483542,4.823006785241102
0.625,-84.9363188770006,5.216740397436557
0.65,-84.93923878202266,5.620756477088021
0.675,-84.87001257126958,6.162736715689866
0.7,-84.73340959303552,6.86646033851547
0.725,-84.54231707829656,7.726991802967916
0.75,-84.2706075488243,8.715426432462259
0.775,-83.93853820541338,9.816435807245474
0.8,-83.70303736618406,10.956490151576082
0.825,-83.84838175018444,11.855571662213308
0.85,-84.63635204673122,12.324044212905376
0.875,-85.9199966797071,12.39223416673069
0.9,-87.3987918689938,12.205865282871397
0.925,-88.77400072723393,11.893164002810925
0.95,-90.0592642851298,11.66684706926096
0.975,-91.23715624751506,11.946228125669522
1.0,-92.49513945999466,12.79746628722745
1.025,-94.22993726479943,13.931302283806264
1.05,-96.41850731812603,15.15703674939091
1.075,-98.77049436412017,16.493128334034505
1.1,-101.03444661358692,17.962884682943162
1.125,-103.0183934028508,19.47781334690882
1.15,-104.59439761651768,20.88654458455801
1.175,-105.76250029393778,22.23327340516454
1.2,-106.52546374175738,23.587735958272678
1.225,-107.06296907980467,24.757550056920202
1.25,-107.56270416387005,25.65214669751023
1.275,-107.98513543042483,26.41274475649364
1.3,-108.30792625486721,27.033813997859017
1.325,-108.57117987268956,27.331203408776375
1.35,-108.78678884511665,27.271198980592068
1.375,-108.93578695785983,27.017156351469467
1.4,-108.99195826462118,26.74602115841554
1.425,-108.88941814542954,26.51105997387951
1.45,-108.64986760092508,26.27494352010475
1.475,-108.34421457749869,25.947016368402796
1.5,-107.9732609300936,25.507242574122778
1.525,-107.57809119586801,25.099602344994278
1.55,-107.1626861269906,24.751539105293972
1.575,-106.76218748905599,24.38827760567317
1.6,-106.41297401887535,24.09649628775924
1.625,-106.03370656004881,23.950005871303617
1.65,-105.53207683471378,23.994692729742678
1.675,-104.91352529969284,24.183010570949556
1.7,-104.2443311105528,24.42266254229712
1.725,-103.55883741216051,24.693713681547685
1.75,-102.75106273759835,24.99703582356886
1.775,-101.72744265324697,25.250802032283193
1.8,-100.56493220170381,25.37601140495055
1.825,-99.45390509823208,25.34009760778445
1.85,-98.53394893814604,25.229766715998384
1.875,-97.8161125315147,25.11381043185551
1.9,-97.18576686237407,24.99151436222626
1.925,-96.46447582918856,24.88645124236892
1.95,-95.50454085801556,24.889518648293528
1.975,-94.3197845337936,25.022857257580117
2.0,-93.03175550307608,25.277236753730033
2.025,-91.73224981203954,25.630588294954503
2.05,-90.48743815302265,26.015793261617205
2.075,-89.22242830722384,26.368612466912957
2.1,-87.89908899187989,26.68497477530022
2.125,-86.80970764823134,26.941277815777553
2.15,-86.32919435029753,27.012369651868077
2.175,-86.34762806272879,26.887215078190554
2.2,-86.22883458010064,26.78498984091146
2.225,-85.42533884891124,26.780146267433246
2.25,-84.2597556792066,26.739856131571464
2.275,-83.35920327929001,26.55210617068256
2.3,-82.678650881588,26.097241958398197
2.325,-81.82343820300316,25.433832463219918
2.35,-80.79937464756505,24.699881081789126
2.375,-79.98432991604663,23.951931851031905
2.4,-79.43183154492127,23.29015943997727
2.425,-78.91335720837466,22.855747846701536
2.45,-78.40618030628137,22.67069537021864
2.475,-77.96311968376762,22.65107901821936
2.5,-77.45470143011099,22.598726314760814
2.525,-76.70907933442919,22.316465587446054
2.55,-75.78343206506354,21.76965661857916
2.575,-74.88304895878272,21.00131833205994
2.6,-74.15726151897877,20.08844393939388
2.625,-73.67151735552565,19.04134493930732
2.65,-73.48584408774353,17.86101064288063
2.675,-73.54171792441123,16.56497484023982
2.7,-73.6721397782075,15.297883909452032
2.725,-73.78629623814601,14.303797305848189
2.75,-73.85514619631564,13.801347371921814
2.775,-73.89833981170504,13.802031562868493
2.8,-73.9686944064782,14.144440348718383
2.825,-74.12117060717917,14.828543547815764
2.85,-74.3424945058319,16.040758758826424
2.875,-74.9773381832841,17.883504523268947
2.9,-76.67003450877786,20.361205252204737
2.925,-79.44467080528909,23.29956104484814
2.95,-82.23747683922674,26.40205668732656
2.975,-83.63496350128094,28.62000761854407
3.0,-83.38104902616183,28.910604191359564
3.025,-82.89601900362999,28.081982673301223
3.05,-82.91489725118167,27.15148328266599
3.075,-83.13957697604786,26.321839278374775
3.1,-83.28467881447976,25.639723486225677
3.125,-83.29615970046463,24.914165756411393
3.15,-82.90713149649699,23.93197475970191
3.175,-81.83468664133895,22.714018658539505
3.2,-80.12096833851037,21.23779103140617
3.225,-78.2926417481181,19.66242504474153
3.25,-76.88788306751279,18.315467691970692
3.275,-76.10214053141385,17.42144330245713
3.3,-75.86579961469879,16.96604412698505
3.325,-75.93472139474014,16.838518943439706
3.35,-76.0788202472324,17.02132871967332
3.375,-76.11233722821082,17.41664291835536
3.4,-76.01572580719802,17.764035981994084
3.425,-75.85063181958341,17.911742445137673
3.45,-75.59440699189447,17.94698021279004
3.475,-75.23179935657492,17.916049464704386
3.5,-74.87923017041196,17.77883282803437
3.525,-74.81343519280655,17.68721974476022
3.55,-75.09019261542372,17.746528708756582
3.575,-75.5959939385829,17.879501170928588
3.6,-76.17605557345908,18.001407187106015
3.625,-76.69828514189722,18.082650962241072
3.65,-77.05488581926836,18.09875593940672
3.675,-77.24604987752708,18.025731884117157
3.7,-77.37435116471774,17.84925640187994
3.725,-77.48539238309411,17.532059224353365
3.75,-77.51699148326301,17.103861007029558
3.775,-77.4028342736922,16.728391764486943
3.8,-77.21556041600186,16.583486566839667
3.825,-77.00576212928264,16.584158335977104
3.85,-76.67394948279973,16.49157352216567
3.875,-76.05251672269068,16.268148887678432
3.9,-75.25777781040935,16.081411227874934
3.925,-74.56446194441624,16.066293324831218
3.95,-73.99725783437731,16.320481820803657
3.975,-73.48146432507787,16.927439083622026
4.0,-73.03725020412259,17.807047432983286
4.025,-72.9455605229144,18.853059566292252
4.05,-73.29225754990867,20.04232857405537
4.075,-73.8646259844012,21.19985711090554
4.1,-74.53949586429182,22.101200585116235
4.125,-75.33409679245361,22.852439100462924
4.15,-75.9409128363748,23.312581554461634
4.175,-76.011219607764,23.0373406020546
4.2,-75.59170467749502,22.25173515755831
4.225,-74.82975125342881,21.507992806639656
4.25,-73.88706069952939,21.019159821695713
4.275,-73.20147117074173,20.76265099767473
4.3,-73.07905615015528,20.762380434602328
4.325,-73.57195202721992,21.026349065575463
4.35,-74.7268448556739,21.47398569434144
4.375,-76.33784025285006,21.908019711225716
4.4,-78.07270561147628,22.103828789878524
4.425,-79.61311943016845,21.919691173179473
4.45,-80.80234014147375,21.353504497142524
4.475,-81.89697269759971,20.51128857727518
4.5,-83.36184181636683,19.661274398529123
4.525,-85.40699437811092,18.99808395206026
4.55,-87.39632716058894,18.594319768457698
4.575,-88.46803976725718,18.46522534996791
4.6,-87.93117524417195,18.311615575954736
4.625,-86.33594395397023,17.99213729097546
4.65,-85.07211882916573,17.765031403854202
4.675,-84.3060951450622,17.676736817180586
4.7,-83.7006623855142,17.65785939102987
4.725,-83.18716511741495,17.663521356321915
4.75,-82.98323084979909,17.634578886428457
4.775,-83.20439627465402,17.621196557897463
4.8,-83.60884920618318,17.756729301536538
4.825,-83.91840456744626,18.016900242066416
4.85,-83.8933096363786,18.167877458797378
4.875,-83.39470392034745,18.04225604646459
4.9,-82.54081635838992,17.80536715846507
4.925,-81.57185979561693,17.67973581725245
4.95,-80.75249817297652,17.73814353888768
4.975,-80.21764198467064,17.89047975168397
5.0,-79.98525458355206,18.03179179275018
5.025,-79.9133613311736,18.076210025017208
5.05,-79.82431697699518,18.078420638961795
5.075,-79.56730202193104,18.150474847106057
5.1,-78.97878514478501,18.380267346495952
5.125,-78.05923110777688,18.784460295814384
5.15,-77.02272166636283,19.230585877971375
5.175,-76.34451756911879,19.71337615459797
5.2,-76.17966249011303,20.37413692352575
5.225,-75.80568584041066,21.03235567683079
5.25,-74.98915662190441,21.248019183240455
5.275,-74.30045991969563,21.177888186213227
5.3,-74.1256288396992,21.289745866236437
5.325,-74.33726253078652,21.740051766229744
5.35,-74.76655403100517,22.343402597496237
5.375,-75.21044086591426,22.903409204069305
5.4,-75.73138303975016,23.436484762000546
5.425,-76.49801040666189,23.883439262836344
5.45,-77.33671424071989,24.03420761838523
5.475,-77.94158549142227,23.92020126527213
5.5,-78.15047054885605,23.83602041579656
5.525,-77.91444530273164,23.837898093257607
5.55,-77.3976191648001,23.913095524574956
5.575,-76.99455455569836,24.159388074315917
5.6,-76.99489819988318,24.5220491438665
5.625,-77.63540268586182,24.945565212886237
5.65,-79.22682861049913,25.598398525264688
5.675,-81.57624608324701,26.30713510893612
5.7,-83.62130222900882,26.492035302746626
5.725,-84.5663485872928,26.20023341100301
5.75,-84.8646421451274,25.826701784916075
5.775,-84.98230502890355,25.5895333185178
5.8,-84.80696218690265,25.462611448897412
5.825,-84.30724825326699,25.491164442285726
5.85,-83.96218039563425,25.602439364522127
5.875,-84.49932426677563,25.729715192464575
5.9,-85.81156512152488,25.900026882549064
5.925,-86.80615335887472,25.772652005227183
5.95,-86.49440792797498,24.82961106590097
5.975,-85.16983422401347,23.44438985879847
6.0,-83.82611200173388,22.599600730391707
6.025,-83.47523626314513,22.646933023744126
6.05,-84.05811766665242,23.23882430727249
6.075,-84.5101043814795,23.8928443649046
6.1,-84.40034780549588,24.32328579934798
6.125,-84.63856202883109,24.776165236178098
6.15,-86.21872078964952,25.471269617583687
6.175,-89.05486831076131,26.302116921630923
6.2,-91.54407404292975,26.932358207722565
6.225,-92.47981928493067,27.00323359140632
6.25,-92.12162338624007,26.55709147282271
6.275,-91.05232158191224,25.99399663789342
6.3,-89.85549943544969,25.75930826022431
6.325,-89.35729892791977,25.959711543868384
6.35,-89.48763050835903,25.88714241551945
6.375,-89.90229588594124,25.27243339730194
6.4,-90.28633653368375,24.788376643680024
6.425,-90.42724219451122,24.991833642222506
6.45,-90.42531719074917,26.14981088747401
6.475,-90.22964069301143,28.15607843007713
6.5,-89.7093212484503,30.349644122144024
6.525,-89.13785553495087,32.244222565548355
6.55,-88.63756944446008,33.978636099009556
6.575,-88.0794890031142,35.428385686348804
6.6,-87.52930192799872,36.66602123643362
6.625,-86.8041580948854,37.26901405187153
6.65,-85.79826647259897,36.94373928353551
6.675,-84.934742634296,36.180539728903945
6.7,-84.15931936605418,35.442224091965215
6.725,-83.48645399193664,35.11966125452525
6.75,-82.99899607328403,35.15770129789983
6.775,-82.63387177411225,35.09699878494242
6.8,-82.09861741769166,34.40382264213756
6.825,-81.38599604836148,33.14982982108069
6.85,-80.73654880442342,31.712049988741995
6.875,-80.17572475813955,30.351362432237977
6.9,-79.54758486982834,29.20326646970079
6.925,-78.75730416067186,28.374677595685803
6.95,-77.92597929331076,27.87439724230892
6.975,-77.21233654269002,27.46236815063819
7.0,-76.66036194429302,26.975844579415302
7.025,-76.25983847666564,26.519595452912057
7.05,-76.07859833964272,26.240403867140962
7.075,-76.19241458984352,26.28757936180877
7.1,-76.57250871963971,26.620670343572286
7.125,-76.98524222391805,26.951404281938924
7.15,-77.2540887834896,27.12260315414093
7.175,-77.30641129268555,27.05098426303535
7.2,-77.08854776759188,26.65298059874871
7.225,-76.63121049160964,25.985614172160997
7.25,-76.03920522899884,25.43668929284471
7.275,-75.37877605088605,25.290644278715593
7.3,-74.73100814964394,25.374509964117145
7.325,-74.15713623434736,25.442838551355894
7.35,-73.58276632844373,25.328219104829127
7.375,-72.9557407008018,25.03667541390177
7.4,-72.43584454751795,24.61712070698862
7.425,-72.13199165482214,24.18251743935017
7.45,-71.93195821202485,23.82005265688831
7.475,-71.76928720737239,23.5470617851166
7.5,-71.632515447563,23.439083851551004
7.525,-71.48316425332615,23.36241108488876
7.55,-71.41400751651675,23.186139576255147
7.575,-71.45894200751982,23.086945214334563
7.6,-71.45467929409185,23.16454741252729
7.625,-71.3634183189766,23.16318938360132
7.65,-71.21893973201598,23.045611248838316
7.675,-71.03980626660245,22.880999419250053
7.7,-70.93394107985083,22.80693685701641
7.725,-70.90711188072953,22.98010826363814
7.75,-70.83079396886573,23.191109531569403
7.775,-70.73873539812496,23.370064527876394
7.8,-70.70314114035254,23.583692071842872
7.825,-70.71213123900759,23.829301723515805
7.85,-70.75893792186913,24.059725351627357
7.875,-70.87081352359742,24.22400341784562
7.9,-71.04776756247958,24.27128844399472
7.925,-71.32259563781571,24.207019996914948
7.95,-71.74615911165256,24.094787053408464
7.975,-72.29051916503676,24.07204155469684
8.0,-72.79080619051891,24.173215306835203
8.025,-73.13128442353816,24.288628463678478
8.05,-73.39646557106562,24.345109164348344
8.075,-73.57689855721331,24.346368362917943
8.1,-73.66282234068673,24.329559507693386
8.125,-73.72767783688425,24.301369827276847
8.15,-73.78418950357145,24.26800022179459
8.175,-73.77081927372325,24.23777189561774
8.2,-73.66468651536046,24.203944995637084
8.225,-73.48438849613215,24.200206619649972
8.25,-73.22735348437736,24.228549665494818
8.275,-72.89060732057996,24.14436431006569
8.3,-72.55594687499274,23.927413662468496
8.325,-72.2976304176934,23.701663429865526
8.35,-72.0266426268336,23.504732894926953
8.375,-71.72850104600597,23.409957018289674
8.4,-71.55917724283827,23.471995845223766
8.425,-71.4729648464676,23.572440233016753
8.45,-71.40257322878782,23.598404755590725
8.475,-71.30171855614626,23.541482766874914
8.5,-71.21762808084911,23.450383864285083
8.525,-71.14906250494353,23.302275995421024
8.55,-70.97066581233686,23.102970626923522
8.575,-70.65728444943059,22.922775638318104
8.6,-70.33281337376654,22.78852338319757
8.625,-70.11216749180906,22.665923326153013
8.65,-70.00646840988232,22.583260617505793
8.675,-69.94298142868017,22.526556034198546
8.7,-69.91123702862805,22.448676669001056
8.725,-69.96329056592087,22.352885128558796
8.75,-70.09706598781185,22.264608045638816
8.775,-70.1719232885011,22.149619528641413
8.8,-70.13052984981226,22.04321565776778
8.825,-70.01703868821951,21.99847400098714
8.85,-69.90562032954367,22.015039862866868
8.875,-69.90393333598202,22.197382196431228
8.9,-70.03003853439533,22.61788402567533
8.925,-70.021966039655,23.190635955445657
8.95,-69.8407477794835,23.760478262155765
8.975,-69.67134949149676,24.320640773207824
9.0,-69.63471988833041,24.992976936116612
9.025,-69.70099689383323,25.63158002363743
9.05,-69.66949356495226,25.897725664188012
9.075,-69.5025820114133,25.860192558706252
9.1,-69.38466297809639,25.784902769468214
9.125,-69.38309026396401,25.76598970035906
9.15,-69.41625544994615,25.801814798303305
9.175,-69.46948053570001,25.958357857376427
9.2,-69.60190564839341,26.353625004129224
9.225,-69.83235701222377,27.095806755306096
9.25,-70.11486520258632,28.172351332749724
9.275,-70.41276213825135,29.454639910930336
9.3,-70.97702733596412,30.85668366826982
9.325,-72.36621584673085,32.72483335887252
9.35,-74.05979848581023,35.049103310409414
9.375,-75.18358321186923,36.97087947216041
9.4,-77.01761704902144,37.91657642719517
9.425,-80.8174435442296,38.23381170353451
9.45,-84.78877803387903,37.59121865066609
9.475,-86.77085835680279,34.84239901699071
9.5,-87.42683380896405,31.18131465258316
9.525,-87.80815638364584,29.567002766500277
9.55,-87.56035621897821,29.452223415027
9.575,-86.58795450812158,29.550535408899524
9.6,-85.60903464467012,30.22344474534753
9.625,-85.29650802171437,31.776261321476753
9.65,-84.8504777744477,33.27426874467147
9.675,-83.34211732376544,33.784433819695806
9.7,-80.87538414685628,33.07967710651821
9.725,-78.2346972914139,31.29773214642384
9.75,-76.37302924099042,29.27843278111689
9.775,-75.50573410830317,28.35219238089292
9.8,-75.22469028988102,28.98328537897805
9.825,-74.75871887766381,30.370947871882375
9.85,-73.63589781747964,31.480700101571664
9.875,-72.53944701956051,32.67075671117837
9.9,-72.37005684706574,34.47407373021199
9.925,-73.43797208680968,37.0795057295068
9.95,-75.27317064112574,40.24278170427552
9.975,-76.59452466046189,42.88770625143033
10.0,-76.3331346572946,43.992818087440114
10.025,-75.10866055493294,44.0309946801803
10.05,-73.83309054702619,43.65134961240599
10.075,-72.53064549901964,42.92688841900582
10.1,-71.55068532076075,42.142283109869794
10.125,-71.03113875138861,41.52341267324458
10.15,-70.5854355345559,41.12924016427477
10.175,-70.06331899218446,40.92771817124659
10.2,-69.55802739097835,40.76773604429557
10.225,-69.02367099492692,40.54252728015815
10.25,-68.32475040346351,40.16476666712783
10.275,-67.64137023220853,39.64687852391538
10.3,-67.17254398114599,39.08148914688186
10.325,-66.90108749231737,38.530803823870656
10.35,-66.68944348460437,38.00681423199813
10.375,-66.4974849251112,37.57691325033432
10.4,-66.28025156633966,37.295441307848854
10.425,-66.08484813695141,37.110888120384274
10.45,-66.03718955933925,36.98889024527556
10.475,-66.1598325866256,36.897189940051454
10.5,-66.4500198504914,36.756027135030585
10.525,-66.9199858902887,36.55212194427521
10.55,-67.43128486593538,36.28384603845537
10.575,-67.76433690621396,35.96343352282012
10.6,-67.87521739036673,35.68765685742947
10.625,-67.88995299744495,35.554828718016324
10.65,-67.8940897040731,35.53726134450273
10.675,-67.95802857295966,35.5957169314284
10.7,-68.06513518743029,35.73158456279417
10.725,-68.18024404116909,35.901321260029434
10.75,-68.36143062573771,36.04653506817127
10.775,-68.6990296109011,36.02345613080939
10.8,-69.18317753800972,35.69245612536897
10.825,-69.68272966079746,35.128695923468094
10.85,-70.17049435852324,34.42554710646035
10.875,-70.74469298937093,33.68575808784472
10.9,-71.57800025553138,33.00701025487501
10.925,-72.98997020057651,32.41254273297871
10.95,-75.14915329508213,31.688687207306543
10.975,-77.1003165902176,30.680547763136783
11.0,-77.48463877157018,29.53388508075728
11.025,-76.50560437760446,28.56148869418529
11.05,-75.49086926917383,28.15808349204964
11.075,-74.44238127662058,28.11878214434978
11.1,-73.10050571899096,28.065761994407175
11.125,-71.64708292050265,27.842447251657774
11.15,-70.277624465431,27.409779881982555
11.175,-68.9423911622739,26.74674313410496
11.2,-67.64152239744226,25.929304467792342
11.225,-66.28369378665249,25.186310906595025
11.25,-64.88988559749427,24.724289125220686
11.275,-63.59064105078465,24.469978361543127
11.3,-62.4280192038854,24.33902120110572
11.325,-61.441675124290775,24.37636418056118
11.35,-60.50927571333324,24.482582260088332
11.375,-59.537588036068,24.486196284865805
11.4,-58.58387101925447,24.309195125449683
11.425,-57.7450357113496,24.01676752714781
11.45,-57.02635847671496,23.71097958517304
11.475,-56.421144731784715,23.360325151888023
11.5,-55.90088036685616,22.960320570598146
11.525,-55.479061501305736,22.566871208969975
11.55,-55.15358214306747,22.183688539824068
11.575,-54.78671623955235,21.75373684644757
11.6,-54.31112380482431,21.228470477879114
