Time [s],Flexion(-)/extension(+),Abduction(+)/adduction(-),Internal(-)/external(+) rotation
0.0,-92.2863215424397,45.5210326481121,10.774616559153614
0.025,-92.53851846643747,45.678403777036685,10.485327140224276
0.05,-92.85736040205754,45.90575057383926,10.005110411679988
0.075,-93.13792622498786,46.088491143741344,9.445991159453213
0.1,-93.36717660204148,46.14441768950945,8.905624101204761
0.125,-93.49471355035486,46.06843743024624,8.44481631858995
0.15,-93.43037700448527,45.86725495795592,8.073409074162749
0.175,-93.14606982485631,45.536757605855804,7.803068257940612
0.2,-92.7364740575536,45.13382629252105,7.676083641529755
0.225,-92.24998105368019,44.7252812034356,7.659246687345443
0.25,-91.74233611311548,44.42641001868626,7.626028809955176
0.275,-91.40430387592777,44.339065405768885,7.504177513210155
0.3,-91.18911973763359,44.44519168432281,7.328797757463676
0.325,-91.06251990580613,44.619828076957006,7.2045028048105015
0.35,-91.01372453400478,44.715083672330145,7.131628703660258
0.375,-91.0003111434849,44.66653131774306,7.0547690752786885
0.4,-90.98907208734524,44.527153402089176,6.971987584151054
0.425,-91.00598088024024,44.3853956726117,6.990353251220526
0.45,-91.06770942691277,44.26398718611936,7.188298208756589
0.475,-91.10907881346851,44.1316754882807,7.527472991049974
0.5,-91.00416749225384,43.944109382760885,7.855570895975946
0.525,-90.7704336055143,43.77657474310271,7.984497021689578
0.55,-90.60086585078761,43.90807306060115,7.938609118580424
0.575,-90.56911924487076,44.318153915993825,7.870182374756437
0.6,-90.66127387810225,44.82303370465896,7.939214562732692
0.625,-90.84097975109513,45.26972659543618,8.136805758994708
0.65,-91.01937900316628,45.68346076885274,8.353928490058024
0.675,-91.09834590275257,46.13984909633091,8.453985352090625
0.7,-91.05377417549047,46.6184680545763,8.330235973249751
0.725,-90.97626742260945,47.09421846362951,8.01638665717996
0.75,-90.97864858466971,47.540332582878726,7.570878814444443
0.775,-91.13771362132617,47.931593462396926,7.08702404645188
0.8,-91.51471882300848,48.221247372478764,6.743367959239529
0.825,-92.2000502300333,48.22362211788728,6.599381287441034
0.85,-93.28784734182236,47.86015906017747,6.7957400207208885
0.875,-94.61665560917787,47.15337061313756,7.506535264837723
0.9,-95.83259781160847,46.09491037208553,8.608851257435642
0.925,-96.50628256743997,44.62643735576343,9.721126307542775
0.95,-96.73502713754917,43.11272021909852,10.4722875003191
0.975,-96.70860402607514,42.19850192630082,10.647199357779916
1.0,-96.73567908871307,42.057685761960684,10.566863476985928
1.025,-97.24821390833006,42.45851012409424,10.918607763503747
1.05,-98.2458987240948,43.26103426081109,11.906889055573055
1.075,-99.31609490279362,44.47946844630564,13.192768245683162
1.1,-100.04841938541252,46.006094205835446,14.372296046848302
1.125,-100.41190323039717,47.668718374427115,15.213402493755094
1.15,-100.65451543284344,49.38554969993449,15.478918124229896
1.175,-100.9690386537969,51.24097705660149,15.161671697644834
1.2,-101.31541786901045,53.207431671214046,14.490621373946556
1.225,-101.6962168415587,55.01715405933492,13.611493944238674
1.25,-102.07955230183327,56.45127360747453,12.631050866861724
1.275,-102.2478725164447,57.48083515901863,11.7875403860333
1.3,-102.12768091014566,58.138564912907185,11.275602987499713
1.325,-101.8205173103847,58.435471398417874,11.095505717533092
1.35,-101.39858861422002,58.4427210149842,11.126678169835921
1.375,-100.85956449123496,58.316785087032336,11.213705709063193
1.4,-100.24325884058615,58.23291442660448,11.231168721500406
1.425,-99.60667098402325,58.26696533322216,11.171747058607147
1.45,-99.01931432697583,58.389445774058196,11.167596625564972
1.475,-98.5333752096927,58.50600501431516,11.216162180323893
1.5,-98.15687358826047,58.56373995872322,11.194568277215712
1.525,-97.8814353087413,58.63274795552144,11.150030003627663
1.55,-97.59672686740386,58.704285204451494,11.066729434562715
1.575,-97.27305450753477,58.70571116089486,10.801414889561597
1.6,-96.96715696349129,58.70128711149895,10.40884478390896
1.625,-96.67509412217024,58.77824445120894,10.00633525830009
1.65,-96.33602565505622,58.96004708367474,9.69892917670875
1.675,-95.94520002727796,59.157306215439256,9.30687341322028
1.7,-95.55560264712,59.28972579018093,8.606688418968277
1.725,-95.20654201737992,59.37762186158279,7.816329545354719
1.75,-94.79200844106062,59.39255675167643,7.332442636870214
1.775,-94.14913218180637,59.17571712058849,7.212324099692069
1.8,-93.21852829455351,58.610971771717885,7.333749164822658
1.825,-92.05285331801988,57.66273337020431,7.68396561300587
1.85,-90.71335539842421,56.401747871828086,8.30861738821113
1.875,-89.2555087406632,54.95889056387777,9.090770042035702
1.9,-87.64181611963643,53.477825646904684,9.866333695364423
1.925,-85.74058311678601,52.06356433867008,10.547601640673275
1.95,-83.48214025954331,50.769725408103234,11.087357870652909
1.975,-80.96112604711375,49.56862070608394,11.389505700337887
2.0,-78.37428856917396,48.46594511819692,11.464135203377802
2.025,-75.88592127035474,47.395457183397774,11.472249533182158
2.05,-73.53195540747828,46.18494726966613,11.571367539554089
2.075,-71.11136529575614,44.75625979509252,11.808667629115568
2.1,-68.4627565561253,43.17739374555854,12.185375558695316
2.125,-65.80115063294737,41.49899247407814,12.72752587000135
2.15,-63.50177255400024,39.661327860756735,13.475459964518338
2.175,-61.58248820820896,37.59091267256201,14.565621291858305
2.2,-59.58357400215102,35.37797874251328,16.032561724053902
2.225,-56.97469515260011,33.12847375838482,17.649638165672766
2.25,-53.82231127507177,30.859331646629222,19.152721520666297
2.275,-50.48559840502006,28.54155890569053,20.491933475697152
2.3,-47.13703653738345,26.189874600838202,21.7213282737535
2.325,-43.87452468362093,23.977045092605305,22.92799764560488
2.35,-40.83883027643219,22.007756832987525,24.13782452029793
2.375,-38.153255345108626,20.198175413879696,25.18495438519308
2.4,-35.702171716187834,18.45959732209658,26.017456921250336
2.425,-33.28208157369806,16.784140950121156,26.774885842640085
2.45,-30.932548760078845,15.15836032367391,27.515293129510287
2.475,-28.85588493079197,13.552284765741689,28.310214562060356
2.5,-27.025175165648538,11.968966304595227,29.24294097498487
2.525,-25.244764101281962,10.453899550878065,30.213386638313658
2.55,-23.54102931456597,9.019319096877584,31.098237770221584
2.575,-22.116454046602428,7.621885705368579,31.93363205113771
2.6,-21.06227805946352,6.234787748574603,32.937697297805556
2.625,-20.279708938764138,4.8163236429714225,34.203413786402116
2.65,-19.75537732867181,3.3418539878744946,35.627636595532095
2.675,-19.530843033677744,1.9119443012284165,37.02843165665125
2.7,-19.51192450147146,0.6524797535396222,38.17806887395208
2.725,-19.603663953707443,-0.3932725954851911,38.76914634224768
2.75,-19.96249699665546,-1.12159770956109,38.71845729578241
2.775,-20.826517819033867,-1.4420425866879785,38.19029889901382
2.8,-22.217699545158915,-1.3805480870454274,37.25321901211045
2.825,-23.991974871343455,-0.9081321091279229,35.930096548718815
2.85,-25.93059860521993,0.1435600928987294,34.33552700636177
2.875,-28.257905348685764,1.658371457296413,32.82642342824958
2.9,-31.590848459775025,3.3523912733022327,31.68221157240976
2.925,-35.91502900978607,5.119846357369824,30.869444627417423
2.95,-40.17088452263428,7.129817655395755,30.651506027915502
2.975,-42.80945355742421,9.344650291665335,30.706162366530886
3.0,-43.179275207320224,11.077921186210911,30.17061282903973
3.025,-42.5436064953386,11.791590727670803,29.75494669286272
3.05,-41.70174410272873,11.602219135708253,30.591685268087836
3.075,-40.57863841391229,10.769630911785326,33.027085888543375
3.1,-39.305303546761664,9.53731360058815,36.941892071393376
3.125,-38.2091783805216,8.139034487489726,41.55425897278727
3.15,-37.1203660802263,6.797829067801504,45.826554140579276
3.175,-35.61694963140488,5.637361907234855,49.11957797581048
3.2,-33.60250963930402,4.711951340152503,51.14333626372167
3.225,-31.515647798899277,4.080778199556474,51.97163653577029
3.25,-29.705515411296638,3.701152627394725,51.834795617259765
3.275,-28.1880216741291,3.4679457634365103,51.06366320588713
3.3,-26.9396438403914,3.3146478029554722,50.13685266627588
3.325,-25.905913624581142,3.300464395743563,49.39897254287232
3.35,-25.027206491493203,3.5400489092093723,48.84684516006966
3.375,-24.193903298813275,4.009924669594426,48.180671776059995
3.4,-23.455771687292604,4.414238790921095,47.314918744872465
3.425,-22.989361158775946,4.523154782374661,46.49415463729253
3.45,-22.857283719235504,4.398001807927669,45.961995085214085
3.475,-23.027690577789457,4.143592718271688,45.73335754310812
3.5,-23.46667996363283,3.796585922104092,45.660961233007576
3.525,-24.249090600657787,3.3410300570537217,45.73417063437259
3.55,-25.267211580699172,2.744201464990504,45.84547422329392
3.575,-26.337780919682334,1.939818278756024,45.728799076067965
3.6,-27.340153730455977,0.96786239267883,45.256669435094075
3.625,-28.201035095036378,-0.0032085172582695283,44.36709828194425
3.65,-28.859394278198913,-0.8157878371830545,42.877899781307384
3.675,-29.315931386466726,-1.3889253243828863,40.737412052078824
3.7,-29.57583793791716,-1.6999936941405436,38.15197211507856
3.725,-29.51200838226181,-1.8919772669867052,35.21847016243032
3.75,-29.091299571365404,-2.012960495398838,32.15171175512488
3.775,-28.67016691594761,-1.632324967175803,29.73184854505371
3.8,-28.384745280265477,-0.9628048688533183,28.19183861003489
3.825,-28.17504300068128,-0.3937534836473192,27.497957667600517
3.85,-27.895280145448897,-0.10458875643302917,27.44444564393925
3.875,-27.41358112719064,-0.08149288253455277,27.668120909927705
3.9,-26.911972846866252,-0.23626744325452426,27.93023245821662
3.925,-26.649368705056936,-0.4941737763876635,28.237187543540568
3.95,-26.566993789178206,-0.7083902698854627,28.85873260050526
3.975,-26.466104884289248,-0.7310010213413022,30.052410100574356
4.0,-26.250461287303185,-0.5566024575820667,31.728140958712164
4.025,-26.138168070237732,-0.21870686367748599,33.55540075833293
4.05,-26.192163095353667,0.3273905308000147,35.18122495823974
4.075,-26.258740136362462,1.1038571033013516,36.18004375438799
4.1,-26.43447872097482,2.1615134227068276,36.17586433117349
4.125,-27.078645555453484,3.607280306793048,35.51718038699093
4.15,-27.96379937372917,5.185834849126493,34.710113765281875
4.175,-28.512236913583934,6.355816043395467,33.81318347814383
4.2,-28.81566708578686,7.168303063772857,33.200972902075726
4.225,-29.20706184367474,7.984541767225492,33.505723048093806
4.25,-29.66229639426124,8.80012364363998,34.84962655598031
4.275,-30.085784304755485,9.413882142976801,36.72486646103625
4.3,-30.333556693604415,9.874796838375032,38.61014658768756
4.325,-30.364109152718413,10.371777429462059,40.2867309999415
4.35,-30.379362089746262,10.90684333734923,41.735683746794194
4.375,-30.350425918923673,11.36483530304055,42.89599656935818
4.4,-30.101845129302603,11.690239471581641,43.69022840784389
4.425,-29.559949224187843,11.938859856850588,44.1221124040718
4.45,-28.901987661500513,12.091935018074542,44.33971146965324
4.475,-28.609865666144067,11.95486949295033,44.6166138008613
4.5,-29.237144164396586,11.533478580489515,45.224112385374276
4.525,-31.133602298071157,10.944974012727627,46.30488057328272
4.55,-33.78267740366281,10.129709577874749,48.14276548238983
4.575,-36.44797285304848,9.001352134975926,50.87714156201857
4.6,-38.32504860624925,7.805242252953321,53.71865594280392
4.625,-39.33844900775182,6.759579743413907,55.48651527783708
4.65,-40.1141696487258,5.899646645837977,55.22011839020554
4.675,-40.59390600685587,5.350530366040055,52.71858076029828
4.7,-40.923505548234814,5.131899142056109,49.302563027207064
4.725,-41.48107781248925,5.150486460445587,46.609406295078784
4.75,-42.52459085269974,5.332442113859333,45.14427133988723
4.775,-44.17424442655526,5.683997967757103,44.55205591122296
4.8,-46.27137466070847,6.433162688224902,44.28481239475227
4.825,-48.33887453854583,7.713131397492931,43.700689459572324
4.85,-49.922493037930735,9.200081686338457,42.54535002040238
4.875,-51.05781523921807,10.614949672703949,41.31465440695429
4.9,-52.04183061144883,11.98433143993317,40.66812720089852
4.925,-52.96074579486318,13.285192601283883,40.72316292574119
4.95,-53.76543180761353,14.455681279393263,41.298417865244765
4.975,-54.33317663555078,15.476062027602927,42.22604986096794
5.0,-54.61927130480799,16.30531202352085,43.40886175405921
5.025,-54.639280733189416,16.90584958396878,44.77132803490583
5.05,-54.51050175497448,17.40031470469034,46.367769384132494
5.075,-54.30845171011915,18.01171983396315,48.12485523808046
5.1,-54.09486741641655,18.84811798668146,49.99223882030392
5.125,-54.12189778605086,19.961167340996525,51.91639340258726
5.15,-54.506849811436474,21.191586105309145,53.281215632537375
5.175,-55.46848860627917,22.311019725255395,53.612711434909215
5.2,-57.028636263214054,23.460072028249353,53.359144432028835
5.225,-58.351231753677894,24.98480153284645,52.666397179858045
5.25,-59.12589577984323,26.677613860167398,51.24492634430933
5.275,-60.05713677532677,28.28704348801471,49.65467287707927
5.3,-61.74200450810191,29.97292339939113,48.64868210457251
5.325,-64.08376709891355,31.8854523776138,48.26649236947792
5.35,-66.7601858344345,33.96469765068134,48.12742592394241
5.375,-69.3777300393597,36.19349823709511,47.92256080040904
5.4,-71.84820161927391,38.58683005795827,47.613473992509405
5.425,-74.38271417257974,41.073546904813156,47.264056317790754
5.45,-76.8697436181306,43.60149935019417,46.627559320762245
5.475,-78.87338489030581,46.20853697894465,45.43954289885937
5.5,-80.25079523583844,48.88778325993856,43.95199732444863
5.525,-81.23446600115456,51.41761231501976,42.33822999521671
5.55,-82.22311122063054,53.70533510218254,40.63351955299233
5.575,-83.60739094690726,55.925785407530185,38.87919713160746
5.6,-85.52022628409111,58.08957049292398,37.207201273135574
5.625,-88.05765649317152,60.173334047429904,36.14899609503309
5.65,-91.52901071936157,62.55152964033226,36.099953344242664
5.675,-95.716477818354,65.25022879870745,35.96613563532597
5.7,-99.40467266723557,67.7215280841504,34.30009128009168
5.725,-101.83867413637601,69.85850087157796,31.69747958159121
5.75,-103.76136418148162,72.03115639130874,29.502618362791274
5.775,-105.90811696717671,74.70998334109761,27.889246814744343
5.8,-108.1657011247493,78.05513466069466,25.747085108850946
5.825,-110.25991313673522,82.03434446861372,22.1420221590304
5.85,-112.41246820525845,86.48921733597582,17.434951624078412
5.875,-115.13911040365018,91.42584664757813,12.86617916072726
5.9,-118.1586541459611,96.2270362934294,9.11097623850181
5.925,-120.3667504042566,99.32910233053252,5.176183001098258
5.95,-120.82828068627124,99.2652927617863,-1.0850325926586182
5.975,-120.75428637150196,96.28879216966892,-10.58268861042087
6.0,-122.65357697458016,91.92141597621571,-18.699609715668092
6.025,-125.28950364664433,87.72225593750636,-18.86925525306541
6.05,-125.48563197585308,86.89718005843197,-15.823512544502469
6.075,-123.19853691407748,88.07126930446219,-16.788482732521636
6.1,-120.44778720653134,87.92039207946921,-20.70603703996394
6.125,-118.80426129641361,86.66856946624112,-23.449898472373416
6.15,-118.72573216289078,86.04746185554352,-23.460430673602218
6.175,-120.0395371973696,86.50191461424853,-20.893718772903032
6.2,-121.37740327082386,86.61811775232422,-17.176797069927066
6.225,-121.39132997158154,85.56518477637695,-14.278112218686022
6.25,-120.11811350755552,83.878198046211,-13.078669191747226
6.275,-118.32184417949688,81.84849241236851,-13.053475782109663
6.3,-116.82334169166153,79.8374249396618,-13.2741738880768
6.325,-116.13141912518911,78.30505601640789,-13.037900079598199
6.35,-115.76807812297508,76.65478336290742,-13.23746127706213
6.375,-115.2895238351448,74.64510216252968,-14.750541348895704
6.4,-114.49381360867076,72.4203564416398,-16.30289549570216
6.425,-113.38000444295133,69.95905749717517,-16.61989497985053
6.45,-112.00786018303498,67.57325233784482,-16.12618647173349
6.475,-110.055979836253,65.27071056637332,-15.375212848754375
6.5,-107.54526374492056,62.77143218189356,-14.575788140769227
6.525,-105.15040114304968,60.07285680601955,-14.264059454621682
6.55,-102.89045561189897,57.52238155681909,-14.840309121610439
6.575,-100.44574778117372,55.14011876293638,-16.544509424316736
6.6,-97.82425597623771,53.1172495350922,-18.756552322617395
6.625,-95.36535646862734,51.144672102542,-20.56811282042538
6.65,-93.74801705555012,49.055757438818006,-20.017941179738884
6.675,-93.49424470567882,47.61591977204569,-16.535149368476514
6.7,-93.35706583385904,47.59453092969873,-14.1835181799651
6.725,-92.3582381644494,49.26157479193442,-15.078685012370698
6.75,-90.96315523663023,51.443159517394264,-17.32359117859986
6.775,-89.84089468885503,52.518480362023716,-18.43345836351494
6.8,-89.07453862028044,51.38029549893366,-17.53453988776159
6.825,-88.59912545265242,48.54203326275045,-15.374126960915268
6.85,-88.28224637322275,45.580013881291535,-13.304560929042976
6.875,-87.69035292544893,43.745842701884506,-12.436284496247863
6.9,-86.61277226879295,43.18132558638559,-12.69094130147591
6.925,-85.45565122399121,43.199524734338524,-12.969026699643676
6.95,-84.7523790980611,43.36066953213367,-12.77570573798957
6.975,-84.49152313236955,43.50759729608152,-12.578051403207727
7.0,-84.26626984045294,43.57911428408263,-12.492099821875133
7.025,-83.88507182087355,43.638585767957615,-12.55420215468902
7.05,-83.4264199452344,43.6875705277364,-12.80153294053192
7.075,-82.97832393122042,43.68464402007732,-12.94078918155168
7.1,-82.62065879418566,43.52098754142225,-12.778989601317503
7.125,-82.34949221604664,42.97653476395419,-12.234596118979912
7.15,-82.16398064989284,42.166411261800526,-11.352253179212605
7.175,-82.03448486937798,41.46328631365587,-10.723152533120368
7.2,-81.86690449618644,41.086647456106604,-10.840068052378722
7.225,-81.69137352330212,40.89890093167801,-11.457817405689458
7.25,-81.47061902985799,40.74149296052181,-12.117257516022626
7.275,-81.10718572849686,40.51142253103698,-12.471301703241558
7.3,-80.72491234469821,40.115386729699,-12.358729593466814
7.325,-80.47573426508728,39.62406090425742,-11.999907468971886
7.35,-80.31796160766619,39.16538240359222,-11.790715639407477
7.375,-80.15873796337081,38.867931205661485,-11.737795540505873
7.4,-80.05476262463358,38.77183275613375,-11.722725276869598
7.425,-79.99848160096975,38.83619108920096,-11.833427300258597
7.45,-79.9408742396226,38.85959569091575,-12.063620427432092
7.475,-79.93492712667222,38.73748683313487,-12.185964929380798
7.5,-79.9124183001316,38.65887507619813,-12.216415814796433
7.525,-79.77491742994347,38.62191020242686,-12.361631334372909
7.55,-79.65077566643585,38.50744931985672,-12.467360905853722
7.575,-79.589254420102,38.4002109994299,-12.343848989352065
7.6,-79.44191703147428,38.37297558508204,-12.28261792962531
7.625,-79.27421733019902,38.27280606614043,-12.43408728150732
7.65,-79.12562600356847,38.092536150558104,-12.401581977761554
7.675,-78.8922138574425,37.8564436522336,-12.058888331886214
7.7,-78.5898593971763,37.623332530193665,-11.68358660647565
7.725,-78.27378819206267,37.450861835363575,-11.410740541263369
7.75,-77.96405552580008,37.210962261949554,-11.23578737597064
7.775,-77.73679032996064,37.07081687513753,-11.184563171997784
7.8,-77.62520874185233,37.17251094939528,-11.207971860606122
7.825,-77.5807378748669,37.37983632517777,-11.253992081135104
7.85,-77.57159209215679,37.532025616846006,-11.288040015276371
7.875,-77.62662931668547,37.58295379610664,-11.225678371258086
7.9,-77.7456849771622,37.520771313990245,-11.115226258584913
7.925,-77.91405782106112,37.40907669894916,-11.117139358514931
7.95,-78.20956197974778,37.36763717675456,-11.287727321319874
7.975,-78.64473568596513,37.52369755421374,-11.635915129654995
8.0,-79.02236161453892,37.77743976116049,-12.088642341551855
8.025,-79.20261127272154,37.94849424281424,-12.441467803978181
8.05,-79.28292483446327,38.03764895539258,-12.6052821752086
