Time [s],Flexion(+)/extension(-)
0.0,13.346588548319716
0.025,13.34565941725774
0.05,13.40539791005223
0.075,13.59958183430492
0.1,13.916649394641743
0.125,14.163142372255315
0.15,14.281030566633378
0.175,14.291923544126886
0.2,14.24488179417987
0.225,14.16870911494168
0.25,14.060305177878035
0.275,13.904088830826696
0.3,13.663485548173442
0.325,13.35373012481348
0.35,13.075920505010952
0.375,12.922739856122803
0.4,12.91420850349546
0.425,13.037213774869587
0.45,13.263228279381645
0.475,13.51766125746872
0.5,13.696189222156379
0.525,13.711084436750987
0.55,13.5591413264225
0.575,13.28832900612797
0.6,12.91468981501528
0.625,12.461206117983338
0.65,12.003900809988362
0.675,11.58559037699485
0.7,11.2031499224659
0.725,10.895659484413871
0.75,10.706117131838436
0.775,10.645667954438808
0.8,10.77365495551217
0.825,11.186653834008824
0.85,11.877788572237652
0.875,12.721676847163323
0.9,13.600955393065002
0.925,14.467235368451973
0.95,15.3385105416775
0.975,16.162841095220152
1.0,16.705369617360194
1.025,16.835891078154177
1.05,16.677966032374044
1.075,16.431029103766218
1.1,16.195705188682304
1.125,16.00789818765921
1.15,15.927947847667863
1.175,16.022363506543222
1.2,16.324378014636533
1.225,16.947201751540454
1.25,17.85871292912506
1.275,18.620405870064335
1.3,18.782912896736036
1.325,18.428056417819498
1.35,18.012963876491828
1.375,17.777440985548434
1.4,17.62978282136606
1.425,17.442178075752654
1.45,17.1858707614038
1.475,16.882246128189415
1.5,16.6163915228003
1.525,16.45635253262619
1.55,16.357391989797748
1.575,16.24950940371448
1.6,16.122251965692165
1.625,15.948722766862039
1.65,15.65627993504031
1.675,15.299593696194986
1.7,15.021266476507213
1.725,14.790904990527913
1.75,14.41628174957989
1.775,13.97350285936086
1.8,13.71161268667468
1.825,13.600903241292903
1.85,13.480179770355033
1.875,13.311884526243151
1.9,13.100640218687483
1.925,12.840451762353656
1.95,12.580502623121927
1.975,12.423958008449327
2.0,12.465006827319273
2.025,12.734320140964225
2.05,13.206725935800613
2.075,13.871096648245397
2.1,14.710904797051313
2.125,15.620601139238811
2.15,16.414590880395284
2.175,16.901781559202984
2.2,16.95501029545918
2.225,16.561105328486143
2.25,15.769181649204851
2.275,14.489351941854979
2.3,12.658030226544888
2.325,10.63410377492265
2.35,9.037120178041775
2.375,8.293295518998875
2.4,8.716035681234352
2.425,10.387070321053669
2.45,13.122268057151244
2.475,16.761278747365335
2.5,21.04122111650193
2.525,25.588209201360847
2.55,30.08213929418674
2.575,34.21396813986906
2.6,37.61997163311083
2.625,40.1261324741667
2.65,41.79976764170999
2.675,42.75653936999917
2.7,43.001301844276306
2.725,42.653916426862004
2.75,42.04347346063405
2.775,41.42249020838025
2.8,40.740752523762815
2.825,39.64753559902364
2.85,37.658682774232815
2.875,34.625593722437955
2.9,30.92981526251513
2.925,27.023446766501863
2.95,23.63794973235001
2.975,21.652842419467394
3.0,20.97113305306179
3.025,21.066509645477847
3.05,21.606481080087246
3.075,22.138044598175647
3.1,22.155410634334984
3.125,21.4589794114252
3.15,20.149350853552193
3.175,18.457505134081003
3.2,16.540250068291364
3.225,14.594174210129081
3.25,12.704520968377036
3.275,10.91152431253205
3.3,9.338996838741524
3.325,8.21188838489
3.35,7.672956188904465
3.375,7.617753320120482
3.4,7.811497710146504
3.425,8.083321431327716
3.45,8.358694607923288
3.475,8.618905058102042
3.5,8.865802769050498
3.525,9.169834140806095
3.55,9.62487372175304
3.575,10.2126155162124
3.6,10.853453770931317
3.625,11.524531796012084
3.65,12.159730211931072
3.675,12.658714633139448
3.7,13.117854975043072
3.725,13.62131744700327
3.75,14.15603717436064
3.775,14.724326349515884
3.8,15.347510599558845
3.825,16.004701688197127
3.85,16.59474162831178
3.875,17.0262678229023
3.9,17.425254076016486
3.925,18.02094600155314
3.95,18.7809915821396
3.975,19.383989953863434
4.0,19.53565498268055
4.025,19.07010543743463
4.05,18.06692532160086
4.075,17.047317601245155
4.1,16.63464744733163
4.125,16.971137394271203
4.15,17.72038291210079
4.175,18.57672490868592
4.2,19.365385288943454
4.225,19.77887452881358
4.25,19.68408310424388
4.275,19.201554535941874
4.3,18.540425354079794
4.325,17.843842933033393
4.35,17.084486850278584
4.375,16.261655446335887
4.4,15.527583574518971
4.425,15.054764375371837
4.45,14.93495138064013
4.475,15.19389781269408
4.5,15.873729621390297
4.525,17.007256436511636
4.55,18.48351126222065
4.575,20.12897277690249
4.6,21.864880177844974
4.625,23.77613505354531
4.65,25.928609120289202
4.675,28.247982397382593
4.7,30.497190182757166
4.725,32.444122717034155
4.75,34.05607485871805
4.775,35.279305550311534
4.8,35.85857538910345
4.825,35.636746164173985
4.85,34.755612564965205
4.875,33.46995229426725
4.9,31.890582983303524
4.925,30.000591746254774
4.95,27.843125482381428
4.975,25.627070764950012
5.0,23.531051551597592
5.025,21.630631847787125
5.05,20.054170059553265
5.075,19.04222953751572
5.1,18.76989101155141
5.125,19.119391785557333
5.15,19.799214116361977
5.175,20.575462013479807
5.2,21.182712211156865
5.225,21.47447770191597
5.25,21.898312939857995
5.275,22.212251396004138
5.3,21.664195064791716
5.325,20.093389052019987
5.35,17.92460307065464
5.375,15.692578121083043
5.4,13.710468723767123
5.425,12.071883491492736
5.45,10.7370226404964
5.475,9.629477650699952
5.5,8.690062677484779
5.525,7.877461818198477
5.55,7.123025605587487
5.575,6.3372762466161925
5.6,5.481131654141506
5.625,4.582205037116662
5.65,3.676369846820084
5.675,2.766511178753828
5.7,1.8623526425692778
5.725,1.0944501600163343
5.75,0.6744213401670773
5.775,0.7661426377924727
5.8,1.4068862325023155
5.825,2.4590677839161925
5.85,3.7361392763537564
5.875,5.066507327440339
5.9,6.26856119319739
5.925,7.332688345049364
5.95,8.53795614999187
5.975,10.148888028047756
6.0,12.265254777730329
6.025,14.758772617589242
6.05,17.251246244402715
6.075,19.36701506609773
6.1,20.938103292192956
6.125,21.6652781243748
6.15,21.237424630979753
6.175,19.746024898127953
6.2,17.419723834840394
6.225,14.592939658822123
6.25,12.004323348701705
6.275,10.61036811130256
6.3,10.310387217828339
6.325,9.7628306016965
6.35,8.09022299111046
6.375,6.073988850856469
6.4,4.622778712041237
6.425,2.7113394633738372
6.45,0.08519710160646382
6.475,-2.284611694860054
6.5,-3.8414872549220873
6.525,-4.82414741456186
6.55,-5.61614299160392
6.575,-6.384189227736021
6.6,-7.012253102518174
6.625,-7.44001289399891
6.65,-7.701606558516756
6.675,-7.908037477183491
6.7,-8.182079243933893
6.725,-8.494926041237036
6.75,-8.749496779199417
6.775,-8.921407421177422
6.8,-9.04986082232359
6.825,-9.184445809735076
6.85,-9.293964870700304
6.875,-9.310143044385258
6.9,-9.15916075810507
6.925,-8.842515642512646
6.95,-8.480140844040754
6.975,-8.234354646328992
7.0,-8.19024942439853
7.025,-8.312460840936849
7.05,-8.493919631375444
7.075,-8.684738713989736
7.1,-8.87558684058886
7.125,-9.026507731594457
7.15,-9.084556467082654
7.175,-9.056979038522332
7.2,-9.014892313142399
7.225,-8.99358919458741
7.25,-8.943401261038325
7.275,-8.78957741247976
7.3,-8.513270501957322
7.325,-8.135145577952684
7.35,-7.686758576017139
7.375,-7.231151806977786
7.4,-6.801179177761668
7.425,-6.388032632652818
7.45,-6.020891893689827
7.475,-5.733311289345336
7.5,-5.497699380728353
7.525,-5.306773459658498
7.55,-5.138098801495234
7.575,-4.954650397503259
7.6,-4.7478666683387365
7.625,-4.503958539382052
7.65,-4.215499735625881
7.675,-3.9190687179079524
7.7,-3.6474122938053495
7.725,-3.401622602145029
7.75,-3.1535180788584714
7.775,-2.868474932063722
7.8,-2.592283180154632
7.825,-2.395924821023533
7.85,-2.2891523625723442
7.875,-2.2487394119952433
7.9,-2.257127255958951
7.925,-2.305678661134748
7.95,-2.3582548147058806
7.975,-2.379394428175988
8.0,-2.4038626484044574
8.025,-2.498782138397841
8.05,-2.667158100872112
8.075,-2.877051072274215
8.1,-3.120503798132515
8.125,-3.366193887611724
8.15,-3.5718742195407587
8.175,-3.739490978211484
8.2,-3.8993248470667967
8.225,-4.046435530721334
8.25,-4.171934927886527
8.275,-4.299480814838524
8.3,-4.432308801649634
8.325,-4.561951758755304
8.35,-4.695553179600941
8.375,-4.8191796096445
8.4,-4.90366046777506
8.425,-4.940492517407891
8.45,-4.917688622871274
8.475,-4.810624301581186
8.5,-4.63328875337261
8.525,-4.423838471086752
8.55,-4.211480342493342
8.575,-4.05379582695723
8.6,-3.968318074474257
8.625,-3.88793300959946
8.65,-3.755369671798447
8.675,-3.580229108403549
8.7,-3.400215117002707
8.725,-3.2076039245549177
8.75,-2.964404089295498
8.775,-2.6975227206943475
8.8,-2.476505893460898
8.825,-2.3192649880072933
8.85,-2.210785115263099
8.875,-2.1870832052140514
8.9,-2.2574000484269208
8.925,-2.3451756255768084
8.95,-2.399711752296227
8.975,-2.4504288343693017
9.0,-2.5106755936321226
9.025,-2.540677719502216
9.05,-2.513767537563104
9.075,-2.4537365912809
9.1,-2.3765634881904094
9.125,-2.245868867474388
9.15,-1.9741251109164517
9.175,-1.5209122701564164
9.2,-0.9318613896777334
9.225,-0.27177389201030006
9.25,0.47577534876400107
9.275,1.343219848295232
9.3,2.22118084791392
9.325,2.8958101558888596
9.35,3.2548708142984664
9.375,3.3272788989743307
9.4,3.1240741895328887
9.425,2.6327537777536607
9.45,1.9130618405401247
9.475,0.951733134263044
9.5,-0.3900345685496112
9.525,-2.0210122748986756
9.55,-3.4454982666899125
9.575,-4.0524550621321325
9.6,-3.6040930812645207
9.625,-2.049398875426383
9.65,0.46955722208428713
9.675,3.5247248736138346
9.7,6.834853416005614
9.725,10.215125606649316
9.75,13.411711578463954
9.775,16.2336241118624
9.8,18.709471423260798
9.825,20.909511447636252
9.85,22.72838700072075
9.875,23.748663447470662
9.9,23.532634812295203
9.925,22.09643263747832
9.95,20.104146136109012
9.975,18.121294926595827
10.0,16.47280681536906
10.025,15.352044144951202
10.05,14.698242230247086
10.075,14.341737495257384
10.1,14.035483263371933
10.125,13.615063074816993
10.15,12.96830132255117
10.175,11.992221675494003
10.2,10.717973511183922
10.225,9.402809913648666
10.25,8.263665633708134
10.275,7.336093432749968
10.3,6.553506444612382
10.325,5.835356293489967
10.35,5.149623830799977
10.375,4.5269864328674005
10.4,4.022608001307595
10.425,3.683637878091943
10.45,3.5088419473786923
10.475,3.4555724753104546
10.5,3.419565739829741
10.525,3.3390954767038203
10.55,3.2727626692099356
10.575,3.214573223746338
10.6,3.1561929322408897
10.625,3.252312894049096
10.65,3.6141601026457337
10.675,4.101139767625486
10.7,4.60976861889545
10.725,5.190883740281857
10.75,5.780607083073549
10.775,6.272929687632387
10.8,6.786448910698609
10.825,7.412796710025986
10.85,7.984426083233406
10.875,8.36861618654081
10.9,8.510416077613879
10.925,8.37784688257193
10.95,7.983681198026884
10.975,7.313931681290971
11.0,6.264843913920681
11.025,4.712884296861392
11.05,2.6130516224236633
11.075,0.4994637012824706
11.1,-0.49883456107848945
11.125,-0.1677704000296615
11.15,0.7672916349659342
11.175,2.2672305189518633
11.2,3.984319286410935
11.225,5.45909702059905
11.25,6.575220254435013
11.275,7.4728203741559796
11.3,8.375484462322826
11.325,9.421012250163534
11.35,10.71741016776106
11.375,12.25300477092897
11.4,13.916451620932367
11.425,15.249778628992056
11.45,15.437903765933335
11.475,14.096383243467525
11.5,12.07253332147705
11.525,10.038666566450617
11.55,8.065939360399254
11.575,6.32467812110266
11.6,4.767261406486695
11.625,3.4041421790970916
11.65,2.291786802180189
11.675,1.4869879119870846
11.7,1.1009561718100667
11.725,1.1621758559583577
11.75,1.5995140769209815
11.775,2.3351306912081915
11.8,3.2955352420533433
11.825,4.378757480886123
11.85,5.484285405662887
11.875,6.510895471186744
11.9,7.3844480522872
11.925,8.10452077165544
11.95,8.765077005747106
11.975,9.430669619458811
12.0,10.101694147741282
12.025,10.814515901221549
12.05,11.572179485605488
12.075,12.313789615879102
12.1,12.979616637014862
12.125,13.509199469833268
12.15,13.82771534830721
12.175,13.938992075083844
12.2,13.924154835564162
12.225,13.855803511193086
12.25,13.761668996000804
12.275,13.639564159795906
12.3,13.506714672146192
12.325,13.38579878543392
12.35,13.296612150723977
12.375,13.276439616918903
12.4,13.362418173889958
12.425,13.59056600333606
12.45,14.035613478074389
12.475,14.791055889499418
12.5,15.942415919618474
12.525,17.586929449153477
12.55,19.83790071643847
12.575,22.73959368230085
12.6,26.17469441322871
12.625,29.678274516543777
12.65,32.52484518769888
12.675,34.88862483980803
12.7,36.702477117346255
12.725,37.06658522983431
12.75,35.59794634537415
12.775,32.6390075855141
12.8,28.898125205247858
12.825,25.140837592160043
12.85,22.16520587111129
12.875,20.807878483172253
12.9,21.4208060321955
12.925,23.60147780941991
12.95,26.195190651658155
12.975,28.147767031011668
13.0,29.701261643125022
13.025,31.46686369048378
13.05,33.50150534687948
13.075,34.56216017834979
13.1,34.19195882492191
13.125,33.004368823967226
13.15,31.414847475678922
13.175,29.489100099819986
13.2,27.428475346136626
13.225,25.510056333323192
13.25,23.869867201659734
13.275,22.498650113612417
13.3,21.224650220219186
13.325,19.8202844329804
13.35,18.179710204182214
13.375,16.391972216825557
13.4,14.664708028318413
13.425,13.126378211237693
13.45,11.87030871964776
13.475,11.072083406594352
13.5,10.892321938361478
13.525,11.250908401819013
13.55,11.754641339124658
13.575,11.967593457772542
13.6,11.72516845641077
13.625,11.277350186473122
13.65,10.981117958688596
13.675,11.065408747464756
13.7,11.51398223485934
13.725,12.22824747010425
13.75,13.515162217095297
13.775,16.202521808356536
13.8,20.894129237981584
13.825,27.292331029384577
13.85,34.858189864780925
13.875,42.89675945127763
13.9,50.19107231671008
13.925,55.99537163739627
13.95,60.74735524057579
13.975,65.3246009857985
14.0,69.93746447760947
14.025,74.11608672629698
14.05,76.80105448018001
14.075,76.45291871140104
14.1,72.18766719866755
14.125,64.66386359786561
14.15,55.40992535940348
14.175,46.02361178616954
14.2,37.95159006955578
14.225,31.987263979742547
14.25,27.674408189385204
14.275,24.11140938093115
14.3,21.582226168570436
14.325,20.246099716716007
14.35,19.511717875455226
14.375,19.77412994016715
14.4,21.320943221198547
14.425,23.82261662439057
14.45,25.825602780268223
14.475,25.24044739979468
14.5,22.613184599829527
14.525,20.275579051088346
14.55,18.88603520034601
14.575,17.662276931637464
14.6,16.671379180216384
14.625,16.996245700125193
14.65,19.13457890610399
14.675,22.661502661687187
14.7,26.62022710092297
14.725,29.857706112793444
14.75,31.682362795829413
14.775,32.181906777962205
14.8,31.990943372421295
14.825,31.730201191653588
14.85,31.803829829729022
14.875,32.49434426379404
14.9,33.689298579780036
14.925,34.68883389309804
14.95,35.030657861998684
14.975,34.81305222298664
15.0,34.245234897727144
15.025,33.260393997171164
15.05,31.80836606470609
15.075,30.380873618704584
15.1,29.68455515007713
15.125,30.331124452979502
15.15,32.69377960744657
15.175,36.30516435367828
15.2,40.13381626953426
15.225,43.60242681318186
15.25,46.81764834793922
15.275,49.92925615669162
15.3,51.9166334487992
15.325,52.24825683353757
15.35,51.41448942325637
15.375,50.1693442942313
15.4,48.89707348723215
15.425,47.50378554174832
15.45,45.85080190124054
15.475,43.86146941298236
15.5,41.246631227034804
15.525,37.543110179418335
15.55,32.72043685449427
15.575,27.568411769597006
15.6,23.25235360980991
15.625,20.83218490419223
15.65,20.949684964905384
15.675,23.370121177815257
15.7,26.29362084849078
15.725,27.545627051668525
15.75,27.547809439806926
15.775,28.12799068190724
15.8,30.102797810508658
15.825,33.15753625640012
15.85,36.89747286094494
15.875,41.036824436373465
15.9,44.435004997748194
15.925,46.009378433133335
15.95,45.63235211949852
15.975,44.50232556270202
16.0,43.31895550527376
16.025,41.7090678333959
16.05,39.34499005072152
16.075,36.26665474442455
16.1,32.61313174500018
16.125,28.714733243021453
16.15,25.079660410983177
16.175,22.091413574246914
16.2,20.00638518222399
16.225,19.21175896804263
16.25,20.136540591909004
16.275,22.89029842287702
16.3,27.084816683435893
16.325,32.16877409793151
16.35,37.84521094417484
16.375,43.53023304485376
16.4,48.196084497028544
16.425,51.47977617204187
16.45,53.90834366115269
16.475,56.00708744999862
16.5,57.44252642571712
16.525,57.463738551382825
16.55,55.77495357437748
16.575,52.501744631133974
16.6,47.85209329181695
16.625,41.994291965346115
16.65,35.18018428955122
16.675,28.036969572664372
16.7,22.00253355898617
16.725,19.12837105024153
16.75,20.20967687317394
16.775,23.27619392300513
16.8,25.591489984752247
16.825,27.038286091436003
16.85,28.725240950954216
16.875,30.33447632705847
16.9,30.222283019001146
16.925,28.372548763430384
16.95,26.267114370041337
16.975,24.417000560617705
17.0,22.585490666363683
17.025,20.88197155357359
17.05,19.672812021345273
17.075,19.12827928172497
17.1,19.070484772553435
17.125,19.195688035432006
17.15,19.327050550480426
17.175,19.343875635376545
17.2,19.05214536395529
17.225,18.358569835390952
17.25,17.38874694487717
17.275,16.306353976114973
17.3,15.208346055268267
17.325,14.145351065822064
17.35,13.15475707002622
17.375,12.314000098420369
17.4,11.714170575355942
17.425,11.376137002271241
17.45,11.226904287075094
17.475,11.218905679777713
17.5,11.415336921817817
17.525,11.884844741741608
17.55,12.721204780559116
17.575,14.14811478715263
17.6,16.238941987891334
17.625,18.905244863625782
17.65,22.168407088520325
17.675,25.923094984615215
17.7,29.628449956744205
17.725,32.56993501456346
17.75,34.23561598017544
17.775,34.75061022988769
17.8,34.426892642436606
17.825,33.40130463100405
17.85,31.735851566622703
17.875,29.497844973279715
17.9,26.86314449491573
17.925,24.10418816921508
17.95,21.42189527176786
17.975,18.907305204856268
18.0,16.72473744490098
18.025,15.235328736675648
18.05,14.77025690171335
18.075,15.297898509336033
18.1,16.5237139078965
18.125,18.43249891109393
18.15,20.933708042703067
18.175,23.35714055278428
18.2,25.434811756591188
18.225,27.35642669132092
18.25,28.43747106048908
18.275,27.70461942135428
18.3,25.453423101886905
18.325,22.59516496427689
18.35,19.855999846515655
18.375,17.54087490077067
18.4,15.65203934874389
18.425,13.994591191945357
18.45,12.389752377887763
18.475,10.813154770820033
18.5,9.340300859394011
18.525,8.074126763497114
18.55,7.05282279548546
18.575,6.138612180445888
18.6,5.165402676774938
18.625,4.125923942397929
18.65,3.1203306763585403
18.675,2.3222217258945363
18.7,1.8558334080859467
18.725,1.6392747580558025
18.75,1.4822943609242687
18.775,1.3746430040799889
18.8,1.3740254318821756
18.825,1.3781025515052228
18.85,1.2441786526437841
18.875,0.9747192090612512
18.9,0.6335346548332711
18.925,0.1884544846369305
18.95,-0.3314399363184599
18.975,-0.7867308420256081
19.0,-1.2376124515658897
19.025,-1.8063679906746748
19.05,-2.3805466371081194
19.075,-2.8182256705898863
19.1,-3.011376231879264
19.125,-2.7221542740601334
19.15,-1.7855104597279423
19.175,-0.4295491536271071
19.2,0.9783442099460321
19.225,2.335689069407353
19.25,3.806901959743241
19.275,5.49119403929915
19.3,7.234975811178778
19.325,8.898060943258558
19.35,10.524618888137235
19.375,12.07801709844701
19.4,13.388342840668543
19.425,14.326023998031175
19.45,14.859001569217575
19.475,14.976421852443918
19.5,14.668603174605138
19.525,13.969660214841772
19.55,13.003960929447821
19.575,11.95203950706178
19.6,11.03916290655555
19.625,10.517116750508078
19.65,10.611796128239252
19.675,11.346856591336223
19.7,12.387654496059524
19.725,13.4851827276791
19.75,15.1327718255252
19.775,17.49881356390716
19.8,19.8631518999408
19.825,21.750074486213908
19.85,22.808381369635523
19.875,22.47731813292543
19.9,20.664338070456076
19.925,18.483402821242315
19.95,16.46384056907679
19.975,14.456791696981998
20.0,12.695930570244887
20.025,11.353902465831117
20.05,10.22973809749641
20.075,9.2783011523327
20.1,8.493062254716866
20.125,7.764085640070149
20.15,7.0081829857898255
20.175,6.20586510384237
20.2,5.32102979146568
20.225,4.406486761286506
20.25,3.741370609569888
20.275,3.481336758258705
20.3,3.503789537555496
20.325,3.5223464887587297
20.35,3.3822992665207448
20.375,3.161918057272465
20.4,2.982639049056962
20.425,2.8000286353576143
20.45,2.669316744198356
