Time [s],Flexion(+)/extension(-),Sidebend left(-)/right(+)
0.0,-17.579227576541907,-6.305462266914949
0.05,-17.85136850328244,-6.378415375229504
0.1,-18.225574604332035,-6.4505096303649445
0.15,-18.52659713950148,-6.482092192915066
0.2,-18.78581040823308,-6.58067456043596
0.25,-19.060853059668215,-6.773721141060293
0.3,-19.239286095902916,-6.990132875263757
0.35,-19.389111841209928,-7.158277532720589
0.4,-19.549968918539,-7.307394048228195
0.45,-19.683405162315633,-7.392524346800152
0.5,-19.826101873599765,-7.470526353165597
0.55,-19.958183342911894,-7.507776088192682
0.6,-20.023834244998536,-7.513947714185286
0.65,-20.137340171873845,-7.527483985479212
0.7,-20.205683440375758,-7.49618663850198
0.75,-20.192155300780225,-7.49756170764528
0.8,-20.219106301422997,-7.531417662867743
0.85,-20.181047373197902,-7.5939558223050465
0.9,-20.07734687754718,-7.649040645298069
0.95,-19.97270690231308,-7.773354057367985
1.0,-19.743651944218048,-7.855199325909944
1.05,-19.397852811339384,-7.918974316680747
1.1,-18.947708296154943,-7.889751542589699
1.15,-18.488038017671975,-7.825743444493759
1.2,-18.126703155786863,-7.725695122582042
1.25,-17.663295163638868,-7.581569658344717
1.3,-17.062507693139167,-7.417345655863872
1.35,-16.432500511298425,-7.204482999362407
1.4,-15.951257245369188,-7.146186307010059
1.45,-15.725464557849337,-7.233719363980102
1.5,-15.492854433870036,-7.27841718206842
1.55,-15.337838796026956,-7.2675007424577975
1.6,-15.253748322358959,-7.165872954446182
1.65,-15.187871632070275,-7.120212637457817
1.7,-15.059077968811058,-7.161794181985047
1.75,-14.991332190342183,-7.3068270337264964
1.8,-15.008650173682378,-7.477718666846905
1.85,-14.989770975623193,-7.632930587537468
1.9,-15.007531148440806,-7.847464368752469
1.95,-15.069190716004146,-7.914613201680943
2.0,-15.188930065866256,-7.960091911280881
2.05,-15.32527352462867,-8.004254557644018
2.1,-15.459127938733241,-8.106549210029247
2.15,-15.526000233416188,-8.13972909512694
2.2,-15.56992105569187,-8.186056170336164
2.25,-15.641159866078494,-8.181751714328133
2.3,-15.795445508311285,-8.105320384809149
2.35,-16.033167686046486,-7.997249991557625
2.4,-16.208621819764158,-7.899547210557088
2.45,-16.258943279399706,-7.829610000873903
2.5,-16.390150411118046,-7.758191178715629
2.55,-16.464631870484045,-7.6285123980415595
2.6,-16.57943041278189,-7.431907763172964
2.65,-16.740437483273436,-7.273159923772332
2.7,-16.98674334103393,-7.203709426028928
2.75,-18.19461810570542,-7.558335437234092
2.8,-22.068304130537793,-9.175840257296247
2.85,-24.936442109082222,-10.233928462530884
2.9,-26.602028086326076,-10.439012577819351
2.95,-27.62747731674967,-10.385813080018998
3.0,-27.96310652169358,-10.099045011945103
3.05,-27.824656982823942,-9.74259130818006
3.1,-27.499597024159055,-9.402852840625437
3.15,-27.14401770261654,-9.05834094929578
3.2,-26.98498203968566,-8.867974669927014
3.25,-26.997446763507096,-8.768816936344422
3.3,-27.155943288487943,-8.775505872993053
3.35,-27.299273375269184,-8.791504870564136
3.4,-27.2792559784574,-8.722511404278293
3.45,-27.305387356771345,-8.626972095733887
3.5,-27.338571078623293,-8.529138581565796
3.55,-27.497595426150507,-8.409959432574142
3.6,-27.731894387514643,-8.229514902868148
3.65,-28.051695056640707,-8.121020406936733
3.7,-28.324312903238866,-8.041719377272788
3.75,-28.437113344879243,-7.890126513418773
3.8,-28.459490262767513,-7.782259444153032
3.85,-28.434520010753168,-7.7850476583692725
3.9,-28.48749687721618,-7.823757505363046
3.95,-28.481875221003843,-7.918181145970345
4.0,-28.366485524975403,-8.008002018868714
4.05,-28.213328339606058,-8.05456124235519
4.1,-27.911085337038607,-8.072087061117045
4.15,-27.549770416751183,-8.076558699649668
4.2,-27.26228174425136,-8.121841450242632
4.25,-26.889328720101116,-8.15297267466133
4.3,-26.460874110222257,-8.100043767014713
4.35,-26.09826108322903,-7.9560166442355476
4.4,-25.861501212962835,-7.865809507189407
4.45,-25.486576570573366,-7.876596663730056
4.5,-24.801528328491106,-7.915840526000943
4.55,-23.66922585911986,-8.016779060686524
4.6,-21.9120840873224,-8.087433509031497
4.65,-19.74294293801146,-8.023186062179148
4.7,-19.19631641178511,-8.420710153625782
4.75,-20.66634020971694,-9.110220991439961
4.8,-23.083206367492103,-9.886868752097653
4.85,-25.18049590940089,-10.696120220162085
4.9,-25.409815269674016,-11.377891029382907
4.95,-23.12344254482293,-11.757252886308564
5.0,-20.188626293218583,-11.691986302338538
5.05,-20.48930407849389,-12.450318872654996
5.1,-22.443140514101028,-13.26055702545296
5.15,-23.808319872048184,-13.567430225605433
5.2,-23.07979627868341,-13.55061703816217
5.25,-20.44264018817151,-13.420778496062937
5.3,-19.291722047553094,-14.021273172190261
5.35,-20.28471538727363,-14.838571567086104
5.4,-21.700684143437034,-15.53390144958446
5.45,-22.42955452679498,-15.813016350677664
5.5,-20.923092283290117,-15.431645463845438
5.55,-17.347886585494027,-14.08271000714137
5.6,-15.418935530671066,-13.433367004896587
5.65,-15.648118546718932,-13.11968993678388
5.7,-16.57589936798264,-12.776012307999586
5.75,-16.188648169881986,-12.005933819873421
5.8,-13.457521705876225,-10.705236872822626
5.85,-9.03829122464084,-8.916965956967273
5.9,-7.199940690771347,-8.124398704868803
5.95,-7.604145294183746,-7.9134070025880545
6.0,-7.978930281943933,-7.661934233847605
6.05,-6.798741964747935,-7.220383674988501
6.1,-4.142391698688966,-6.821863317860781
6.15,-0.9445595420520453,-6.554713915237532
6.2,1.3635678072537054,-6.287670632826642
6.25,2.1713369087113916,-6.103095888951962
6.3,2.451474066230751,-5.982840175844209
6.35,2.514458137710534,-6.00250650563239
6.4,2.776439177156929,-6.009823670463434
6.45,3.3209595198274737,-5.903167439176224
6.5,3.556043119531482,-5.783626606281134
6.55,3.2417334238983417,-5.772760893317627
6.6,2.7696313356199256,-5.775610602049933
6.65,2.3991150365930967,-5.8683124926392445
6.7,2.6235467809807846,-5.98056164474606
6.75,3.2918231866715266,-6.159869309784177
6.8,3.3391479380118927,-6.719147854361915
6.85,1.6056380861794752,-8.536461250546868
6.9,-2.152891898309422,-12.06632208335826
6.95,-6.556391081408339,-15.829536218264423
7.0,-10.547425404389864,-18.283339502742635
7.05,-13.42264045515033,-19.347074646674734
7.1,-15.28410659909403,-19.63228462813844
7.15,-16.82271368838135,-19.48645089595994
7.2,-17.90246482130264,-19.342555193811766
7.25,-18.702699196359426,-19.438031254757977
7.3,-19.534654571271698,-19.46251827911794
7.35,-20.17503169875233,-19.11455633405895
7.4,-20.619676299001867,-18.745775453748273
7.45,-20.774713741008696,-18.593794320047934
7.5,-21.01319356662692,-18.427138927094454
7.55,-21.300140606541557,-18.472435431338212
7.6,-21.993545330948724,-18.804939345530713
7.65,-22.485905004384332,-18.63507770936851
7.7,-23.09809770467065,-18.422850859833677
7.75,-23.335878335716824,-18.31021322676226
7.8,-23.22831311206089,-18.089329906923403
7.85,-23.516170285714647,-17.87130035757356
7.9,-23.780683401419296,-17.28616458140768
7.95,-24.266613370198076,-16.959736066035177
8.0,-24.528899354660627,-16.65771258814409
8.05,-24.900195018925775,-16.329620286536986
8.1,-25.164979488242242,-16.012937008256472
8.15,-25.227150707462783,-15.820585195143488
8.2,-25.231434696312306,-15.857505315557287
8.25,-25.306318828771136,-16.033735940273235
8.3,-25.385113995432594,-16.165311536889284
8.35,-25.485178291530673,-16.021233891682268
8.4,-25.63932930063546,-15.777519128525048
8.45,-25.775285602068024,-15.568223300809146
8.5,-25.986185488795755,-15.507571692593373
8.55,-26.06404667523858,-15.572159809686921
8.6,-26.21106285126884,-15.708777854086254
8.65,-26.256591577578302,-15.75992071712129
8.7,-26.26736868733034,-15.738690277578806
8.75,-26.254134368528764,-15.679957904158861
8.8,-26.275664359609216,-15.631918497561792
8.85,-26.275390711084384,-15.601876944226106
8.9,-26.22368729045473,-15.541051585882423
8.95,-26.072492455464012,-15.474854483499485
9.0,-25.87618134552074,-15.454105229354239
9.05,-25.610103678916545,-15.481378619171803
9.1,-25.226972560720558,-15.542179294433089
9.15,-24.84657223960807,-15.565194749794978
9.2,-24.58469753935272,-15.620766020087496
9.25,-24.59879705509081,-15.673396562848206
9.3,-24.728515179746758,-15.732117759322865
9.35,-24.871104910255397,-15.831917428016771
9.4,-24.908387419685173,-15.852437806857102
9.45,-24.835165947302603,-15.85916340102615
9.5,-24.811144745698396,-15.859503616801566
9.55,-24.82047863928069,-15.853486660399149
9.6,-24.80895926293013,-15.84583198982771
9.65,-24.6051576624555,-15.878706862164037
9.7,-24.081206548818574,-15.97391587416453
9.75,-23.14252969244278,-16.0784346562996
9.8,-21.70329508719253,-15.972079872239263
9.85,-20.08378758720846,-15.937635051891583
9.9,-21.328723652198526,-16.776160360619286
9.95,-23.33566167940975,-17.49661342150953
10.0,-25.234623538292986,-17.53573355119306
10.05,-25.517067897711513,-16.180459382929985
10.1,-24.237524185919945,-14.176182094753713
10.15,-21.737399851474674,-12.367759634517544
10.2,-18.88180041956119,-11.379742995991176
10.25,-18.190080945360943,-11.550537222641148
10.3,-18.859276738698053,-12.11452280049687
10.35,-19.412910085788177,-12.632932283366138
10.4,-19.11023362880056,-12.79942386890404
10.45,-17.541270243740396,-12.785768213297201
10.5,-15.192326316450295,-12.454468265374247
10.55,-13.878731484624218,-12.291001947927054
10.6,-14.25702457705201,-12.348556310155397
10.65,-15.472952569850833,-12.41981506506101
10.7,-16.930546197165725,-12.585542040424684
10.75,-18.25785227927411,-13.163742585458065
10.8,-19.459589749259845,-13.76161684247801
10.85,-20.45090532510202,-14.201626709282927
10.9,-21.051826432487026,-14.401507574577396
10.95,-21.124434158335298,-14.34061322435972
11.0,-20.898798653231136,-14.330222110268872
11.05,-20.73014437678807,-14.448444541944196
11.1,-21.016867235068887,-14.356650906592359
11.15,-21.74132222493345,-14.14157852796096
11.2,-22.567574706582874,-13.775135440682583
11.25,-22.964707395944632,-13.308853198319502
11.3,-22.78153517860827,-12.750550808492182
11.35,-22.21697043344589,-12.235067322773482
11.4,-21.913218057069628,-11.76094473656209
11.45,-22.258488656873382,-11.260489751963986
11.5,-22.923118468987532,-10.718151843058568
11.55,-23.55182681328693,-10.014556462797955
11.6,-24.243028242923177,-9.143405043589686
11.65,-24.939191204437652,-8.19734313907491
11.7,-25.641083321218744,-7.224197509036762
11.75,-26.287428056680138,-6.401523755973216
11.8,-26.694360519411276,-5.759412271104412
11.85,-26.91228716663486,-5.208848351391748
11.9,-26.93791909462619,-4.824601491775253
11.95,-27.030542431368453,-4.561382046357476
12.0,-27.28300524869768,-4.504064980740271
12.05,-27.583523139252918,-4.595546921260591
12.1,-27.993322139725514,-4.721485176656372
12.15,-28.442613206880896,-4.871763739826862
12.2,-28.767330408453237,-5.007852302877302
12.25,-29.042498552556506,-5.038088455437597
12.3,-29.236244831015757,-5.046403567327683
12.35,-29.438396627709526,-5.177180786542198
12.4,-29.60746080010881,-5.4153627002571545
12.45,-29.771378412787865,-5.68753349955305
12.5,-29.883921675163652,-5.903752822413685
12.55,-29.804038750793218,-5.98890335863715
12.6,-29.664659853497263,-6.0149497336372795
12.65,-29.477552155442112,-6.077345989583273
12.7,-29.27361953082376,-6.227246503337917
12.75,-29.152085541623602,-6.473056933308756
12.8,-28.980558455194966,-6.694451348496192
12.85,-28.78007864647585,-6.914432428850335
12.9,-28.574732964447783,-7.054663211013445
12.95,-28.34086919087939,-7.2160122112304625
13.0,-28.137233349056693,-7.392715899903878
13.05,-28.032404773967034,-7.586663742206816
13.1,-27.888496536553507,-7.6622585791201825
13.15,-27.77534931461923,-7.634034789950024
13.2,-27.85209896307882,-7.597037055735101
13.25,-27.88019845349933,-7.62970911094107
13.3,-27.884781325526774,-7.856040286968357
13.35,-27.757159292318715,-8.069329593983857
13.4,-27.537284969712964,-8.11403770099941
13.45,-27.460056739843907,-8.030296798477224
13.5,-27.344999046619723,-7.955696618248153
13.55,-27.07052896114038,-7.921263723657844
13.6,-26.64684684400942,-7.760091077615596
13.65,-26.238833125282234,-7.474771231209427
13.7,-25.8879740360282,-7.137593012054872
13.75,-25.73835092865164,-6.846339010851362
13.8,-25.65403950710052,-6.657277230781189
13.85,-25.60403604537176,-6.552738833855404
13.9,-25.403018021143485,-6.534289299347927
13.95,-25.085917881683926,-6.53486851292123
14.0,-24.541303712063048,-6.596371702344526
14.05,-23.903742443476503,-6.614125729537313
14.1,-23.372012044746928,-6.6667586079073144
14.15,-22.58709265194964,-6.546907662020897
14.2,-21.188904265060525,-5.990348660843729
14.25,-19.788580513146332,-5.603258680183922
14.3,-18.673995898840527,-5.916028751028309
14.35,-17.868921163339525,-6.783134925682101
14.4,-17.67245025843169,-7.672861016485966
14.45,-19.334528132962394,-8.635352945021637
14.5,-21.830613883782377,-9.679376891066168
14.55,-24.589456820536775,-10.216579807408174
14.6,-27.333348384802544,-10.363226248457424
14.65,-29.721109873081755,-10.612089838195768
14.7,-31.871341141228097,-10.83686434966196
14.75,-33.655637648001814,-11.287747273244657
14.8,-34.52543907712702,-11.584162444313394
14.85,-34.82957404889355,-11.887263489469442
14.9,-34.903042088958735,-12.194737458632043
14.95,-34.841689959886196,-12.081961628231571
15.0,-35.016703153316,-12.071696545109857
15.05,-35.11125006370734,-12.376918066634646
15.1,-34.87376656263889,-12.481084353979716
15.15,-34.60720715448696,-12.570505813539402
15.2,-34.2439525933244,-12.86728740490464
15.25,-33.90536600901225,-13.098662563198964
15.3,-33.88465347186971,-13.328408236157804
15.35,-33.85259288597655,-13.484365521574297
15.4,-33.55340752165623,-13.601808898689441
15.45,-33.370914648211674,-13.566006956554919
15.5,-33.38738206378857,-13.542471853050133
15.55,-33.50797469624313,-13.627052655848136
15.6,-33.55039178355577,-13.797197410042125
15.65,-33.444904102515586,-14.02164374074189
15.7,-33.33784882282036,-14.208995416130508
15.75,-33.16393525498726,-14.445824314171693
15.8,-32.91839751501696,-14.933246372950924
15.85,-32.7202773911447,-15.872554370217586
15.9,-32.72157681098628,-17.478903264058346
15.95,-32.76625879629419,-19.652704579386995
16.0,-32.572504960736126,-21.536309331456042
16.05,-31.974931137064512,-22.52721683688686
16.1,-31.554767417113773,-22.66197990166939
16.15,-32.749940246825744,-22.589563838569216
16.2,-35.83752033965054,-22.05113883819605
16.25,-38.14048109991964,-20.94523713782133
16.3,-38.5715714636952,-19.788241822752678
16.35,-36.77170064576714,-18.721366569653078
16.4,-34.145529939749885,-17.78289904120304
16.45,-33.8925924131411,-17.846552307268745
16.5,-35.364134633976334,-18.05221499979118
16.55,-35.56629119262326,-17.3961288119545
16.6,-33.66920052212774,-16.302677807484564
16.65,-32.14673800364324,-15.746812072195715
16.7,-32.957680096098244,-16.583336206658586
16.75,-34.71818000262536,-17.26013388655747
16.8,-35.47205680317979,-17.230463216632916
16.85,-34.37379369228336,-16.754173183678233
16.9,-32.83467833731684,-16.631324501614447
16.95,-32.60910487718262,-17.35586314933029
17.0,-33.84804167281751,-17.83651755366281
17.05,-34.39152995247058,-17.544468597080556
17.1,-33.62999446329857,-16.870059235976782
17.15,-32.51023409902758,-16.659670502576805
17.2,-32.753590010051695,-17.360854293265664
17.25,-33.94780450082283,-17.80799405256632
17.3,-34.577160890137044,-17.662704678203703
17.35,-33.963938413805984,-17.197204604284057
17.4,-32.62997426494382,-16.919305922791036
17.45,-32.22052080519549,-17.25618663691595
17.5,-33.14723755175933,-17.58038438307557
17.55,-34.083106288619355,-17.536919589902364
17.6,-34.09383489735541,-17.19503632641993
17.65,-33.187924772198365,-16.92946540531089
17.7,-32.639017267750894,-17.2286311778299
17.75,-33.35047039770206,-17.7673292125785
17.8,-34.35817340017511,-17.963005889706025
17.85,-34.52400684326752,-17.84129824512127
17.9,-33.7741254439907,-17.590742966431115
17.95,-33.19644218884728,-17.629084767050866
18.0,-33.49026539810809,-17.86764647527963
18.05,-33.92109737205408,-17.793720340502983
18.1,-33.60306636578394,-17.45715946429076
18.15,-32.61700151586122,-17.041447035113062
18.2,-32.1120781423738,-17.220780899901378
18.25,-32.6251682658519,-17.662872436234558
18.3,-33.29418186330265,-17.807915085060642
18.35,-33.034807760773006,-17.45161892301917
18.4,-31.961403595996863,-16.990001382432098
18.45,-31.237833786395672,-17.028116987356018
18.5,-31.606603687508322,-17.341366138603174
18.55,-32.232173220747704,-17.383138439639776
18.6,-32.321250817907064,-17.078848001510543
18.65,-31.739935199940348,-16.76566993522654
18.7,-31.12621770664786,-16.75451112126986
18.75,-31.032808612928008,-16.795085679963254
18.8,-31.353483699294152,-16.76126912808596
18.85,-31.700695650381235,-16.59745754368293
18.9,-31.665267067585447,-16.471563905636174
18.95,-31.39031357684056,-16.44252138783842
19.0,-31.114614459663795,-16.45994175784875
19.05,-30.77629057865177,-16.293884489462645
19.1,-29.58557172391841,-15.623810880542269
19.15,-25.93765124061907,-13.8654331326327
19.2,-19.966843074851486,-10.941288736258253
19.25,-13.382553587197494,-7.705780659990864
19.3,-7.736420555385356,-5.510810605152807
19.35,-3.8558169556613002,-4.540688479042832
19.4,-1.1431544371031788,-4.008895841106569
19.45,1.0180764266829565,-3.86532382011589
19.5,2.9217834429361935,-3.89311876293142
19.55,4.77472809978,-3.9580947868674117
19.6,6.145970250307093,-3.9828287600930787
19.65,7.249255650180855,-3.9955640626344353
19.7,7.988077945440044,-3.9185942566176393
19.75,8.487699303264295,-3.865722821631964
19.8,8.730585777035975,-3.801682132336644
19.85,8.854852090029729,-3.776978394000464
