Time [s],Anterior(+)/posterior(-) tilt,Lateral tilt left(-)/right(+),Rotation left(+)/right(-)
0.0,-3.13662860326184,-0.049592743939307536,-0.06181503622549104
0.025,-3.1116956680021723,-0.03599940557844988,-0.05549696210194816
0.05,-3.081032401084411,-0.018027332202097384,-0.0449623181602002
0.075,-3.0454812097672956,0.0027245001973621626,-0.03416130157728818
0.1,-2.974715053437287,0.03029847202444846,-0.02945145660530489
0.125,-2.815035261750167,0.06240663961147811,-0.03964157984028231
0.15,-2.515988941806888,0.08753634509379528,-0.07012284925281659
0.175,-2.060803321761309,0.10120420079175431,-0.1217841206844501
0.2,-1.457013815676423,0.11287434239522376,-0.19280127504873648
0.225,-0.7235294653903328,0.12357166905883869,-0.28222695593439434
0.25,0.06150836326692272,0.11144629107336823,-0.3829542870728142
0.275,0.7843136542500101,0.06903686174595078,-0.47219038362727483
0.3,1.4050752108521078,0.04591795893058852,-0.5239637253311747
0.325,1.9121480875709542,0.11376265662433496,-0.5004922095433607
0.35,2.320361170432175,0.31202754520655046,-0.3592470673645969
0.375,2.6540019129822867,0.6248460347742136,-0.06359511746389804
0.4,2.925830039208088,0.9964652998952614,0.4136458939630182
0.425,3.1355605548477747,1.3776313530842246,1.0681094954312649
0.45,3.290985928124725,1.7420541216052525,1.8646582230105446
0.475,3.423488101605047,2.07379477583616,2.7778508735730623
0.5,3.5787195460688586,2.374535444223682,3.796402483957587
0.525,3.7845343883959304,2.665857528299602,4.899843052441627
0.55,4.065599831514298,2.9587941619291382,6.060881910876786
0.575,4.464207485244023,3.241911505153425,7.236623107017399
0.6,5.019196173387505,3.502812286572026,8.363763792309975
0.625,5.774027621942401,3.763723179860727,9.358557558135878
0.65,6.709189081221204,4.090897016586552,10.083423229076674
0.675,7.678845202657056,4.538576057940119,10.385895645145123
0.7,8.549185022970569,5.075288283693663,10.157380726253985
0.725,9.31763589101865,5.628312959794739,9.37082921388798
0.75,9.944447725667692,6.185736643789131,8.10933872199727
0.775,10.471541801284557,6.769318565785342,6.499665204004375
0.8,11.045158106358539,7.40617933726137,4.649243602247151
0.825,11.746459632957546,8.128186775340081,2.656617545797696
0.85,12.647501821491208,8.91992922606026,0.6662711699067014
0.875,13.799073202565996,9.740873372828721,-1.154233372080529
0.9,15.121356339746425,10.54630401857184,-2.6864878030497428
0.925,16.434812354197852,11.242711231676745,-3.864050053253699
0.95,17.59604069462653,11.714406781044032,-4.684289628501771
0.975,18.56772750821071,11.917811061250722,-5.20951832494314
1.0,19.44308004713654,11.92455541479436,-5.515334828577889
1.025,20.301334490844443,11.85319865879754,-5.6392615950349185
1.05,21.08082851291466,11.725732499913182,-5.525523465925268
1.075,21.64712491999906,11.494843747339214,-5.098656514467425
1.1,21.905355784666884,11.153254104960553,-4.337239619526732
1.125,21.915718225050682,10.731007835496031,-3.2149007798649447
1.15,21.878638231032987,10.262575217996222,-1.7017097889954222
1.175,21.895669305863855,9.760227286270384,0.15118402045983848
1.2,21.93132855933186,9.209589573180365,2.2631307806058856
1.225,21.982802109564368,8.62785816033402,4.606469149593179
1.25,22.077054568365746,8.09709748058546,7.164880639460403
1.275,22.23711792345426,7.717958350340121,9.85166449408434
1.3,22.447052123408724,7.55947191308991,12.548669876588022
1.325,22.658384948440325,7.537733296584921,15.293979794495293
1.35,22.91153337640533,7.340693911854982,18.210461958145583
1.375,23.176987955516953,6.71346447678759,21.213700681273014
1.4,23.40074803816152,5.655263300588967,24.132492021800843
1.425,23.562367597718467,4.373437934579688,26.90138581906818
1.45,23.760715819656156,3.0611096016962995,29.48383794706927
1.475,24.223003193850978,1.7573762795404642,31.880686155675598
1.5,25.298891182248795,0.42149180229102107,34.19806760180578
1.525,26.64296168340677,-0.7634560928675808,36.42434711789624
1.55,26.907462684072964,-1.556962629316141,38.335903454711925
1.575,26.56717068117539,-2.370192567111732,40.118234850495114
1.6,25.7343850696665,-3.125282425366546,42.07046265536277
1.625,24.26418771859225,-3.248739548758055,44.17325902321607
1.65,22.785696056018057,-2.7545849178336286,46.74943031016989
1.675,21.18463959278326,-2.0287900378541934,50.05915885548296
1.7,19.28869209129722,-1.3636721871081205,53.75006457333455
1.725,17.010815341968424,-0.547181758627997,57.18401313062316
1.75,14.2172885187433,0.6013485263828925,60.31335370058694
1.775,10.599202627858476,2.2373245008945517,63.31868584876763
1.8,5.627624804471215,4.738202525926177,65.8368170567951
1.825,-0.6890027447657389,8.019928759967474,67.77948576802702
1.85,-6.5651784244492015,11.157167765989033,69.4414012405603
1.875,-9.249522543821717,12.561896904051022,71.01011687338824
1.9,-8.139085087971006,11.588435085423745,72.53703631612613
1.925,-5.626185199892323,9.407041467034439,74.11796992897828
1.95,-3.526085607234311,7.11832960781037,75.800070487783
1.975,-1.989980060074464,5.128160632997097,77.54424743048516
2.0,-0.5230202516731396,3.2664043486546688,79.33896468228855
2.025,1.5368048928888125,1.0921619900968094,81.11137980909135
2.05,4.474936121314865,-1.7068938150075503,82.75465638356958
2.075,7.9617027829130835,-5.606063407777922,84.37408216218564
2.1,10.627541429270726,-9.8668474200827,86.30336390987625
2.125,11.555716097108354,-12.049133652157263,88.69665097188776
2.15,11.726540290419265,-12.91016439051143,91.33324378111347
2.175,12.006306445764368,-13.696169372488798,94.0912700593688
2.2,12.435642072568966,-14.381043486234457,97.01265360636974
2.225,12.635005475448834,-14.852867243225305,100.17842679825728
2.25,12.425486862262746,-15.063268495370963,103.56502490150841
2.275,12.229607926665869,-14.857853718454585,106.95740407918893
2.3,12.6595920678028,-14.659154604145339,110.25708126277948
2.325,13.269855861056685,-14.73202035711996,113.58977835277909
2.35,13.400039353808083,-15.023632998023917,116.96845752363498
2.375,13.457315436560547,-15.413037118510116,120.18917110441241
2.4,14.169007833495387,-16.478628835476382,122.94435286132176
2.425,15.442707676629716,-18.28079397534757,124.99558305979555
2.45,16.969287065378513,-20.588010808782848,126.23950353107513
2.475,18.106920073605536,-22.9334049854367,126.77703024389884
2.5,18.10694723101396,-24.72037546477837,126.8527992656111
2.525,17.432418185538705,-25.23172879592017,126.83730322058857
2.55,17.092462200139444,-24.674777521063138,127.21593023995042
2.575,16.98937899686775,-24.368803628832246,128.25032466123986
2.6,16.194035157198236,-25.479165497280558,129.82740910886378
2.625,13.931900612686707,-27.321633081603082,131.47308302057084
2.65,10.393684408157004,-28.838294146150975,132.79601334877657
2.675,6.151501826493287,-29.32227446424622,133.83614579513662
2.7,1.8204559027772276,-28.35080273012528,134.72954399944257
2.725,-1.5846449179745417,-26.507950830886514,135.35567576724765
2.75,-3.420323644430586,-25.083646140035658,135.74777779470332
2.775,-3.5560722739481507,-25.718022094953664,136.10356577355037
2.8,-2.952623209330862,-29.939933104507546,136.51131504239913
2.825,-4.083785887793252,-36.17861242438984,136.90575776912425
2.85,-7.296579661880981,-40.4143953234003,137.3265354284121
2.875,-9.883077419316821,-43.6566845922721,138.14613568760393
2.9,-11.622428442713334,-45.98633275886406,139.05077778527442
2.925,-12.567982809036561,-46.66240727814864,139.08365158905295
2.95,-12.430769620348386,-45.085604725697465,137.85666665145132
2.975,-11.768317102494882,-40.71907155707402,135.8335515331423
3.0,-10.823552476615461,-35.00237160414245,133.63955495103576
3.025,-9.827299294346602,-29.938242437048082,131.72535837696842
3.05,-9.308493733884092,-26.15359663052803,130.1991302870454
3.075,-9.547888874651278,-23.244832288601554,128.9271264597425
3.1,-10.426996658202308,-21.230583213471718,127.86927404719354
3.125,-11.708069528228117,-20.28642602565943,127.13096088194719
3.15,-12.53125185769364,-20.506313777286437,126.787622822541
3.175,-11.692612401877737,-21.83438871404798,126.83023252787193
3.2,-8.804934993132962,-23.685316566688805,127.1527254197122
3.225,-4.187917970563899,-25.43334918197219,127.58827633024107
3.25,1.9212733530436992,-27.172344046279758,128.09400966509304
3.275,8.759569361896947,-29.22990725577257,128.8447760775574
3.3,13.866918712620762,-30.540020032516058,129.94013845140327
3.325,15.4085120238787,-29.9709499305777,130.98111506158284
3.35,15.653873708662909,-29.198686827327226,131.76013340855056
3.375,16.497768110174757,-28.973183809816078,133.11882819155338
3.4,18.130870437047772,-29.53390468305831,136.2384131463074
3.425,21.110736773618363,-31.585531094901558,141.10713733929197
3.45,25.743473532804092,-35.46449018158697,146.7709924210746
3.475,31.289169317278112,-40.99502568115842,152.6235616172645
3.5,37.59133965775474,-48.65469601772723,158.5462458911291
3.525,46.258883315179276,-58.81027776397754,164.2810827020728
3.55,61.32621895727216,-72.30773706467424,169.38536129285018
3.575,88.06799090257931,-93.3823265902141,173.50127095574786
3.6,124.52673331735167,-123.95694060947712,176.53742258427775
3.625,159.02789147549768,-157.6851883880215,178.73396358575536
3.65,-171.23948207641286,171.19765224580289,-179.4897698857212
3.675,-138.56130963454746,146.21844978368966,-177.79345964704592
3.7,-94.9113982704938,129.97669934653157,-176.0573303277275
3.725,-42.08716658801557,121.96554804895175,-174.38709781432246
3.75,2.4685010268270347,118.4760250986019,-172.99614696926864
3.775,27.837909238667166,115.0765636008358,-171.86404749060122
3.8,38.00859468896491,108.92235970003574,-170.65537870816027
3.825,42.6693235699146,101.41525280224344,-169.11209048175007
3.85,45.83047243975623,95.03175876293899,-167.60273282389943
3.875,47.894346882398054,91.05514443718445,-166.70467604168118
3.9,49.27713900109012,89.65386008921648,-166.4833555601768
3.925,49.995442382138336,90.32308312993233,-166.6811966853511
3.95,49.659332699498385,91.84865840927357,-167.11758296551199
3.975,48.34272687961348,93.26620550250692,-167.73942861850506
4.0,47.42616683856632,95.04723479240789,-168.56363278822678
4.025,48.681373201240284,98.01153412385057,-169.6015638108576
4.05,53.39248688198525,102.69237857248268,-170.8161320776725
4.075,62.54162345175892,109.51309638551375,-172.12348997091323
4.1,76.3481250150499,118.1785323901288,-173.39276762492315
4.125,93.40930922063633,127.05837264987488,-174.461950918075
4.15,111.31610745984996,135.11376445429056,-175.31339985110645
4.175,128.33577508288633,143.2698113383575,-176.13411093625976
4.2,142.3982431002861,151.2711594121648,-176.9911581057386
4.225,152.38971141159004,157.32654534898947,-177.7224560745629
4.25,162.81753156304168,164.77597435052192,-178.56147370087453
4.275,178.46594567444092,178.58003102688244,-179.87246045431
4.3,-160.8797395247862,-162.29458386279168,178.46339310536132
4.325,-137.25847920346473,-141.6601665384885,176.71403862725535
4.35,-112.19974658698939,-122.37994720591693,174.90473215012625
4.375,-89.59413959390744,-106.33230661501824,172.95998843031288
4.4,-72.98352624766277,-93.04872566936467,170.81563411415576
4.425,-62.16931228710735,-81.5696320249723,168.4830427644024
4.45,-55.09048044094291,-70.76999364114106,165.99014749469004
4.475,-49.03030925158064,-59.248600300458634,163.13556724486364
4.5,-42.36590540470378,-47.916542973821855,159.69281287320374
4.525,-35.4827417970673,-38.474755890702504,155.77420182334808
4.55,-29.263581173074257,-31.571620834756114,151.63960502441503
4.575,-24.338060610092683,-26.73275719993116,147.45670164664202
4.6,-20.763472624078442,-23.28678164713126,143.31017759813145
4.625,-18.113465201864454,-20.850965689151064,139.27392465152656
4.65,-15.846732582377928,-19.20501135103072,135.40186002022057
4.675,-13.647335586968302,-18.091932941344083,131.7021786164636
4.7,-11.54316275420021,-17.267649877039354,128.16864711968054
4.725,-9.7187195247477,-16.622430126968688,124.78747144015105
4.75,-8.350755680302296,-16.186746358634963,121.51944195707901
4.775,-7.503538219086741,-15.97551869217678,118.32913883496185
4.8,-7.111537753784838,-15.99733670608543,115.2003412400313
4.825,-7.0751340398671445,-16.321859910877617,112.14113082041644
4.85,-7.361647953816046,-17.040677961666034,109.2370212487869
4.875,-8.021102012147466,-18.141303227285047,106.62926369180542
4.9,-9.11727945318907,-19.639575024595484,104.41427330891253
4.925,-10.65740138365464,-21.6137573166987,102.63774467144898
4.95,-12.560361225407625,-24.03751311566588,101.28547653682672
4.975,-14.727025175736681,-26.85239077699139,100.32427487815598
5.0,-17.1047467233638,-30.04719241016345,99.73550038310566
5.025,-19.679888230366387,-33.55169876171153,99.46228759968758
5.05,-22.44917466593517,-37.2799051948873,99.45961910052782
5.075,-25.286046121582284,-41.21295769173673,99.72261798372892
5.1,-27.97824536597108,-45.31185435613378,100.21019733129877
5.125,-30.42771656509086,-49.40793067123723,100.82473812754799
5.15,-32.619679703315754,-53.340246494327474,101.44341008038572
5.175,-34.510139356250114,-57.02713926496521,101.94763266232532
5.2,-36.14997952730853,-60.395488693503324,102.29355484529088
5.225,-37.66908412387129,-63.358841504528066,102.51877076381113
5.25,-39.1136275380472,-65.89066085783678,102.678000812386
5.275,-40.39761580246357,-68.01491659313399,102.78831096485274
5.3,-41.403073675505134,-69.74581901679332,102.8203350568733
5.325,-42.13081535964833,-71.06276879665145,102.75685741435603
5.35,-42.66487794021065,-71.99223695320013,102.64451633843727
5.375,-43.05395293302346,-72.59588367768154,102.55835503120078
5.4,-43.25936008425964,-72.91245378473342,102.53086410531289
5.425,-43.17360394719233,-72.95060174635313,102.54078432294578
5.45,-42.71086547013535,-72.68691305792679,102.55409112776685
5.475,-41.84327797907644,-72.09672912670764,102.53267885908171
5.5,-40.613245315990916,-71.16913165816078,102.44471386569656
5.525,-39.106005092833335,-69.91326030323422,102.2767171463549
5.55,-37.383107439879105,-68.35240582230283,102.02610214249252
5.575,-35.46093075362934,-66.5019296031501,101.6921159718578
5.6,-33.336310571812405,-64.37949521819131,101.27677243321014
5.625,-30.992166405204564,-62.00389637588015,100.761510095333
5.65,-28.437161101019726,-59.36430672639116,100.1253934447811
5.675,-25.697014687970277,-56.434718226187826,99.36444045068961
5.7,-22.771955470783592,-53.173469585385654,98.45548451532635
5.725,-19.641349549526577,-49.535050359525115,97.36507420686047
5.75,-16.331105977401574,-45.505219860882065,96.11261794753814
5.775,-12.925496913106018,-41.15484777780127,94.78590256713451
5.8,-9.497193761157236,-36.591277645862604,93.46279876088448
5.825,-6.1043073547678395,-31.913139660355732,92.17708687493422
5.85,-2.7652098829357463,-27.262517123594932,90.93430080479666
5.875,0.5177308030372426,-22.80716899397905,89.75862234872505
5.9,3.755609368034982,-18.661152136475593,88.6915264297961
5.925,6.991989896290244,-14.829142652007441,87.73903482639261
5.95,10.25117195141988,-11.224704584755276,86.87215601834768
5.975,13.54940741304461,-7.81814993944263,86.08740135692182
6.0,16.885229597267525,-4.579224482747601,85.38197021946404
6.025,20.223343348250374,-1.3990653777656332,84.66941670050844
6.05,23.498723114152725,1.8169359385535973,83.84775287425329
6.075,26.62973539302421,5.038605139931928,82.9364966800948
6.1,29.608854199170985,8.091959177799264,82.03963237212076
6.125,32.46747219395374,10.836484283414965,81.18972598388801
6.15,35.165846378803636,13.291854170004534,80.35029523654327
6.175,37.73980598787536,15.473013902993554,79.53175454298078
6.2,40.21430726323271,17.42147620924555,78.76648982216214
6.225,42.564733757176505,19.175128976586223,78.08333296136239
6.25,44.75526325265034,20.728440482409788,77.48883885673833
6.275,46.73926416200296,22.09328731257343,76.94776869265529
6.3,48.49703738689373,23.293628042582082,76.42590931446976
6.325,50.00306773393306,24.326624589709766,75.91609395617536
6.35,51.25495359789356,25.17375541105468,75.42604330897598
6.375,52.29440877735225,25.82317632882389,74.97263002568687
6.4,53.163215673080856,26.26256324988871,74.5764841084013
6.425,53.88727863661617,26.479151408685397,74.25128011906963
6.45,54.462755111004356,26.475987812439264,73.98066430430822
6.475,54.8595634934338,26.282882288435733,73.71699672243169
6.5,55.039239702527894,25.92935633161347,73.42139066123647
6.525,54.97460454020773,25.433412286281612,73.10215007195191
6.55,54.67295790039303,24.801921461627114,72.79940135144447
6.575,54.160081127134696,24.046648304887583,72.56265729958386
6.6,53.449323467306115,23.190800044362664,72.43010277581898
6.625,52.551168053855974,22.246422756424895,72.40581913164372
6.65,51.480653859813565,21.21424962726592,72.47911400707345
6.675,50.258901645228235,20.094450366428728,72.6623817062847
6.7,48.89526420001414,18.889115767911147,72.98027065747722
6.725,47.37470435439833,17.598408399375185,73.44698124205286
6.75,45.6848641354031,16.22117465158432,74.06086498692062
6.775,43.8055567907125,14.77266744991873,74.8003745298552
6.8,41.72312195558827,13.267732847990631,75.63846671933328
6.825,39.44787568234529,11.710829585323777,76.56826392001116
6.85,37.00344192803886,10.108618015142737,77.60161916342952
6.875,34.4140134379301,8.46334158926516,78.74293274685577
6.9,31.709273017677766,6.7389655160799995,79.98031000195891
6.925,28.90044417608733,4.868729967812903,81.29417693832684
6.95,25.98518426790857,2.779827429334308,82.66283242480837
6.975,22.9526498886754,0.4171688457749607,84.0646467393149
7.0,19.792285731020307,-2.234345672324225,85.46140093479234
7.025,16.515013744847717,-5.138884522631313,86.80774103676133
7.05,13.172128378909175,-8.250126028180471,88.07073331246752
7.075,9.825826828516247,-11.565249636635809,89.23885377380155
7.1,6.492296737841812,-15.12400336769655,90.34832913140674
7.125,3.116410795631982,-18.94312404563935,91.48664215016352
7.15,-0.3392514390469392,-22.944220935945392,92.6766349117613
7.175,-3.780686877085892,-26.983393452146007,93.82703506215117
7.2,-7.052485220192288,-31.02306747759489,94.89542279188906
7.225,-10.086704739756291,-35.1139017364794,95.95038973920317
7.25,-12.963217524748208,-39.2722966389472,97.04849407993154
7.275,-15.83356466553689,-43.44037037584981,98.15037503045247
7.3,-18.791289222580435,-47.4849844911313,99.18337396743209
7.325,-21.733443058698175,-51.25974086594786,100.09653204024205
7.35,-24.38738493264897,-54.710381892840886,100.85484115784308
7.375,-26.617588691430047,-57.82822024686809,101.42100219753756
7.4,-28.503749115955728,-60.65414727005146,101.79387064369611
7.425,-30.209807082215306,-63.26778898950619,102.02685863838964
7.45,-31.879228351144867,-65.70868906326857,102.20003671018416
7.475,-33.52556168639611,-67.97910647170156,102.36471671189958
7.5,-35.05403857439939,-70.03857531361918,102.50431094914768
7.525,-36.380885284051445,-71.81811608906524,102.5781956409477
7.55,-37.47954368786316,-73.26081631686239,102.58126420196328
7.575,-38.3713085236625,-74.34313029043408,102.54311461174957
7.6,-39.07629392064761,-75.08112265026598,102.48459862793466
7.625,-39.582312701385256,-75.52064690256275,102.39666011297957
7.65,-39.87537316136084,-75.71050691581951,102.25546117112798
7.675,-39.94960671238337,-75.68515504835304,102.05063705892745
7.7,-39.773077205654246,-75.43743805662625,101.76861940685792
7.725,-39.31312684095439,-74.93873325603681,101.3905819301101
7.75,-38.55260844647732,-74.17320318547246,100.90490797681124
7.775,-37.48086409329443,-73.15695232938468,100.31468068095432
7.8,-36.068708351771036,-71.93383517460566,99.62746108875
7.825,-34.27285107338041,-70.53088325244627,98.83592528962352
7.85,-32.07900294814042,-68.95789363886193,97.91941092651012
7.875,-29.50834995378905,-67.31432336910125,96.90251822789966
7.9,-26.625878895847357,-65.78573229382866,95.86184101200696
