Time [s],Anterior(+)/posterior(-) tilt,Lateral tilt left(-)/right(+),Rotation left(+)/right(-)
0.0,12.940133374225733,7.149037555755395,-60.471687401150064
0.05,12.922542763028982,7.176452588662718,-60.53147745070137
0.1,12.848017765680478,7.16627886922408,-60.602506877182336
0.15,12.70813157050124,7.091653214144136,-60.724245472887524
0.2,12.527358486920926,7.033723307387128,-60.86158227968753
0.25,12.286356484936684,7.002343232524892,-60.977529501100626
0.3,12.0524592826062,6.9733785972239986,-60.95318723550074
0.35,11.833046161479166,7.014455211484544,-60.93744731255753
0.4,11.394474176878184,6.973189036649441,-60.87622881696141
0.45,10.833240657331114,6.924232330767362,-60.7815211181781
0.5,10.313591493431314,6.840945366871406,-60.58115915290964
0.55,9.776208054107888,6.8673579156543765,-60.36028949689448
0.6,9.202299111078062,6.860841436492958,-60.08003043237064
0.65,8.658977359647325,6.910256911427688,-59.68219729534016
0.7,8.248896598244327,7.127198167248085,-59.302881780235275
0.75,8.276218200632455,7.624690325987555,-58.701822032223504
0.8,8.51220883146394,8.18398265868168,-58.00369216385856
0.85,8.712113823628961,8.951313269084524,-57.206178795366284
0.9,8.968963326201106,10.004954090213117,-56.34631936903381
0.95,9.078416647165733,11.519789168323923,-55.363987579801986
1.0,9.451554888519707,13.545335697138047,-54.050831885395205
1.05,10.115862354499285,16.028031673785527,-52.65000027910937
1.1,10.982548352680844,18.88512613357819,-51.12729978331351
1.15,11.693284319150465,21.67923724077278,-49.391784399650724
1.2,12.302260782738692,24.490698726600062,-47.380024108533895
1.25,12.843608078175215,26.767636278156385,-45.20765411021629
1.3,13.400130335407503,28.595149516297408,-42.95219652802305
1.35,13.586255013749296,29.91569306438649,-40.85579985277155
1.4,13.962484673396734,30.871782669440165,-38.499000390586005
1.45,14.623545878520105,31.34321704589615,-35.9481051904769
1.5,15.30694147161439,31.64446123095404,-33.66814139095735
1.55,15.563996809045431,31.747423561811274,-31.813061036177732
1.6,15.789848875317757,31.651398478889785,-30.16327596501721
1.65,16.303181853752914,31.355713200600814,-28.584179708117002
1.7,17.117810876091017,31.086417466120192,-26.876429243850577
1.75,18.222514675653215,30.858616698152094,-25.337914192595107
1.8,19.637159396385172,30.811031774447112,-24.182902160299534
1.85,21.04721976965953,30.647777314465113,-23.43148828326428
1.9,22.479162807682005,30.305132548266837,-23.268753991971156
1.95,23.25163019436687,29.599873643096227,-24.170216886397636
2.0,23.10360357262335,28.638281073399398,-25.993376594483223
2.05,22.46053004748596,27.27433445155309,-28.53060090901407
2.1,20.80491992419571,25.452349662270695,-31.606511032515733
2.15,18.629899487888316,23.184759899368327,-34.97839629080224
2.2,17.263252259841174,20.6634554211855,-38.10675673619597
2.25,16.37707225412859,17.979643915710525,-40.843427641783705
2.3,16.08634940362166,15.601849119548168,-43.21053923959261
2.35,15.507488264410489,13.916638537284618,-45.053397582363125
2.4,14.412488063065013,12.246044241838128,-46.71297301669803
2.45,13.1636845628561,10.842608832259737,-48.22594503182807
2.5,12.401024755395566,9.224690545935166,-49.20412205120661
2.55,12.485227682030445,7.384311666246893,-49.8922265204491
2.6,12.889038600553791,5.88754662140461,-50.1053722472944
2.65,13.594483567897775,4.7761127039047535,-49.65958177857288
2.7,14.695059240735254,3.6431246196290754,-48.51800534546719
2.75,15.960056787537379,2.4693032548589033,-47.505046598436664
2.8,17.19190233965767,1.6091665202003127,-46.733678218933996
2.85,18.20601365604932,0.7572250688119608,-45.65631787816401
2.9,18.78591162222399,-0.1589320347276203,-44.37114340739904
2.95,18.851864394462794,-1.1731423505221061,-42.90833415081856
3.0,19.14693639309005,-1.851470097717764,-41.41880369163773
3.05,19.665077189871585,-2.3604860566754606,-40.08651059738129
3.1,20.046795421032275,-2.70422884033988,-39.121127573056256
3.15,19.809108267071313,-2.9064365973465507,-38.265915682021586
3.2,19.20864677199296,-3.0678844785663917,-37.1547806131874
3.25,17.77146533566468,-3.401867332559376,-35.650776270880414
3.3,15.71845176646008,-3.8533848517409415,-34.17905572463764
3.35,14.173898267996414,-4.319432640983414,-32.73278002908391
3.4,13.138887891072287,-4.543731907489687,-31.633046520245912
3.45,12.507829734520275,-4.690594203181641,-30.82766797186601
3.5,12.277747480105019,-4.825804862057089,-30.514345487671807
3.55,12.665459351142669,-4.533490711935384,-30.34480896586029
3.6,12.945086619919337,-4.100467711896607,-29.866561756593118
3.65,13.421727980456497,-3.809622599670159,-29.1299694137132
3.7,13.96093276760923,-3.3479320041900364,-28.475650001099336
3.75,14.456766944752541,-2.9368150926318353,-28.15144383936725
3.8,15.175498360716297,-2.6508390821015717,-28.27350400309108
3.85,15.698131420995075,-2.6054452708390263,-28.435140382916668
3.9,15.736804434618637,-2.9102437306286593,-28.608632525142117
3.95,15.626532554340873,-3.437157244816793,-29.049590108271236
4.0,15.512891060334692,-3.873546887474699,-29.503017952741807
4.05,15.468702483606052,-4.251064282593596,-30.118480526265696
4.1,15.726961338273862,-4.154575156175335,-31.17375825377506
4.15,16.04625585634848,-3.858075206804001,-32.21519790657697
4.2,16.515420274047106,-3.144942328120731,-33.53971413558242
4.25,16.88110379497934,-2.705416052222334,-35.23856952827925
4.3,17.13076192153735,-1.9350848660046664,-37.4315579353327
4.35,18.017318634708182,-1.3624231354034424,-39.359869710085384
4.4,19.319393917385607,-0.7556359464528609,-40.77438268750941
4.45,20.03147498586855,-0.41188712853167236,-41.99802937461175
4.5,20.2561224081975,-0.31349995826703464,-42.97135469552746
4.55,20.372660235254486,-0.0746610414996539,-43.44879334974037
4.6,20.612925511235638,-0.13843114506805884,-43.291883620251234
4.65,21.004948497568616,0.33361746920107654,-43.2326772270766
4.7,21.192983266385493,0.6450323544714972,-42.712516310834076
4.75,21.531619355113985,0.7595884840890142,-41.46016150989707
4.8,21.757070731065493,0.6446972408633213,-39.726339582612816
4.85,21.55377672042834,0.5287866511491552,-37.65355759890114
4.9,20.547057745807013,-0.21429527808844234,-35.810012168283734
4.95,19.26679250413578,-0.8772361428805602,-34.59036972622949
5.0,17.940508895769604,-1.2576161794252578,-33.628643869489345
5.05,16.945571640801425,-2.206922615570259,-32.869254827744264
5.1,16.183327862874613,-3.1614249374118684,-32.289616253392616
5.15,15.763446985667345,-3.6445925917650914,-31.84391356030793
5.2,15.171715862346101,-3.6794607272528936,-31.641206709154876
5.25,14.32304575729994,-3.41595224954244,-31.706701966428124
5.3,13.28607829959242,-3.389009868343678,-32.03181214575827
5.35,12.606500353105515,-3.5883505865281533,-32.44501208313078
5.4,12.61488659070329,-3.7731078515227527,-32.9554012407229
5.45,12.964791335794724,-3.649557668729192,-33.58883333133365
5.5,13.2997974067521,-3.4187131422128876,-34.14953873325655
5.55,13.351629537520862,-3.0938638074517697,-34.68915483740951
5.6,13.171585501201452,-2.9001626567818937,-35.027941437261966
5.65,13.216105811369607,-2.936415529212929,-35.139581689588155
5.7,13.621956151856251,-3.061485452970101,-35.199659602925024
5.75,14.229879611586627,-3.0351510219965827,-35.40439548643221
5.8,14.619153446354096,-2.777871402458715,-35.55793903276242
5.85,14.744209642445378,-2.294886235279987,-35.502086180348506
5.9,14.751060626413686,-1.878544501687883,-35.37218074852561
5.95,14.678673727269626,-1.8073753012729676,-35.11352710720544
6.0,14.828621247010465,-1.8787345119838939,-34.674009600530255
6.05,15.322256737264299,-2.1116921483014677,-34.163682855554626
6.1,15.659746066886884,-2.3249351279495056,-33.54069288326848
6.15,15.67247822853962,-2.501759303644702,-33.07750350189635
6.2,15.526907270683076,-2.720885421441279,-32.62620795141607
6.25,15.50598006227727,-2.9954391283380595,-32.36847333063162
6.3,15.383213740318896,-2.9321647697364317,-32.32959748716057
6.35,15.074429998444367,-2.6730888629482927,-32.31184117378217
6.4,15.15585822694819,-2.3600504110378133,-32.23242910843802
6.45,15.69597251887636,-1.9871248315411407,-32.0871264471881
6.5,16.008336375172995,-1.5077367765569984,-31.888313054378628
6.55,16.039441521961777,-1.1018990701819058,-31.204879812226867
6.6,15.479363603628528,-0.8828146558288424,-30.00849135745059
6.65,14.46271872408571,-0.9158224361121671,-28.763136035166383
6.7,13.52793942330315,-0.9912469783708275,-27.92947035678091
6.75,12.497931141514714,-1.2973223306425485,-27.27656281087717
6.8,12.179429580351092,-1.765842265972829,-26.61712124769423
6.85,12.214066511535226,-2.5371546700427468,-25.83255585783664
6.9,12.2722889257765,-3.133079704945527,-25.406222689662215
6.95,12.385236751290696,-3.3159090437965975,-25.455737054644423
7.0,12.491375567769722,-3.3581451827676774,-25.925570546480625
7.05,12.764981768402924,-3.3481572394647534,-26.57636119398508
7.1,13.204395149263831,-3.4149997526151825,-27.174056263499804
7.15,13.482209713194113,-3.598832133611641,-27.5741545445621
7.2,13.389439424309954,-3.6311047300307426,-27.817066534261873
7.25,12.926644609046896,-3.744045464946529,-27.832366017736657
7.3,12.547926937348977,-3.9519439953699553,-27.951665874498314
7.35,12.116792303007506,-4.247457038288549,-27.73533150399359
7.4,11.726598602198166,-5.349693303574485,-27.59241994621378
7.45,12.230436123302857,-6.5351046072300445,-27.50303016002567
7.5,13.202843328299842,-7.686929080233403,-28.143336200807152
7.55,14.169216294192347,-8.514002030993003,-29.54135058284914
7.6,14.710185214380271,-8.973069824615044,-31.021980047137593
7.65,14.212948137074878,-8.869291660985812,-32.76729693991054
7.7,13.56990447087738,-8.268891039567992,-34.99274174660539
7.75,13.599222358654076,-7.002646327084655,-36.886579971068784
7.8,14.006540930544089,-5.693142458890365,-38.018110450197774
7.85,14.938416090160029,-4.737960005615784,-38.35045581914578
7.9,16.63670689506132,-3.8744917406796864,-37.548112015206534
7.95,18.848324848358608,-3.240767855456093,-36.44125692340675
8.0,20.708517332126508,-2.392714442757499,-36.27832237536382
8.05,22.214793402852333,-0.9141925168399855,-36.30620628056676
8.1,23.718792081047525,1.0950425194350204,-36.22001743818903
8.15,24.812001889428398,3.7731294312221255,-35.31226360373461
8.2,25.577410288397218,6.493925987624415,-33.59202111601429
8.25,26.33877401239177,9.653779268307515,-31.15054596243904
8.3,27.115449826021756,12.587599857181177,-28.227101038270977
8.35,28.559390282438105,15.199682948809706,-25.15649819473244
8.4,29.588596931974884,17.305895614490062,-21.96507821865907
8.45,30.151397117009264,18.893425972167478,-18.694061810946284
8.5,30.181712601254002,19.84570420256817,-15.702029233209498
8.55,30.10575458983797,20.074555838659066,-13.45960249896056
8.6,30.435160012184888,20.095619491921138,-11.794546242393078
8.65,31.433071821233447,20.268100194398507,-10.428721828162463
8.7,33.28116317466845,19.74880144328109,-9.436061901377286
8.75,35.8840324798355,18.84190835733914,-9.495044189623298
8.8,38.86536377438016,18.09721789691472,-11.273671397944186
8.85,41.41413256073988,17.704379913279595,-15.332787492180035
8.9,44.4776577719442,16.629875736881075,-22.0039256854683
8.95,46.321791854603326,16.135253433430236,-29.340544826761647
9.0,49.676544590946385,16.818837364710944,-36.4789659356522
9.05,55.11220973919804,16.77697420762321,-43.16844295626708
9.1,60.551187124607296,16.834526028345486,-51.350717547850955
9.15,66.57154457863864,18.818237630111945,-60.37967165446782
9.2,72.72969480249323,20.340048292891357,-67.04010013444825
9.25,78.2614431346207,22.288675747511736,-68.07772531166803
9.3,82.41725021063591,26.905149021218772,-65.36134278126256
9.35,85.51238653919734,31.256966819401928,-63.0028585201026
9.4,88.96504257054798,36.49120062601898,-62.25047914890229
9.45,93.75592114567354,39.78944891311735,-64.90857189872061
9.5,97.95299829203287,41.245467764690886,-68.81691124388074
9.55,100.21089980228518,42.40728521940332,-72.93505447395269
9.6,99.92405630480675,40.21054829853507,-73.98233136949665
9.65,99.49312409289784,40.419131238718855,-71.07871971238953
9.7,100.48794808703767,41.30757329162382,-68.1254029502618
9.75,100.42341217781305,40.56184362219265,-64.61006263907524
9.8,99.47941909427436,38.676955741883205,-62.36905528578637
9.85,100.03575900515548,38.37387418305676,-61.94801315341531
9.9,101.50540002507846,39.29534717751313,-63.94952979450995
9.95,101.58761065041581,40.7761359181597,-66.14173048280993
10.0,101.59990592032268,42.5767136547231,-66.44763618006074
10.05,100.40971911799606,41.90586563604999,-66.52401571457094
10.1,98.82197240677807,43.009542500371666,-64.79737657510199
10.15,97.3052493923371,40.85762298308063,-62.76823417258201
10.2,97.29052215575538,38.258042118067955,-60.800870399546994
10.25,96.36985043901844,36.93078383859133,-60.07616267782725
10.3,97.04325498853937,37.878455642711025,-60.58670893329617
10.35,97.80506746357325,38.85064933043919,-62.08137973704234
10.4,98.14780220199287,39.817709234819574,-64.42534868482822
10.45,99.08373099786304,42.575412146764876,-67.54001071308038
10.5,100.15921222540067,43.81668675191084,-70.27922007804992
10.55,95.34834540601912,41.25155556028145,-68.88767194178834
10.6,92.27561749155134,40.05880939006857,-65.92641032440643
10.65,92.95768599793337,39.94881490062556,-63.72597001262669
10.7,91.82558394029682,35.970917655506966,-61.870377692679945
10.75,91.9141680811799,35.19925971664345,-61.32554390814294
10.8,93.45681901628917,37.73153502195795,-61.304367842176845
10.85,95.12736464951843,39.09408273885699,-61.701581949463545
10.9,96.98944880299672,39.9526037901559,-63.423856436340145
10.95,98.84220452646453,41.13172568237632,-66.52117389658133
11.0,99.51018678977914,43.130129848949984,-68.10636033509957
11.05,99.55780468525975,42.299817322792684,-70.26755736254907
11.1,96.47916716024992,39.668264701612095,-70.2892365043405
11.15,94.08859181461861,38.124866080040135,-68.3157455955897
11.2,93.6871067490146,37.505960172246205,-65.76169204093472
11.25,95.64460807723322,36.54102058127701,-64.64859071050253
11.3,94.48128413382243,34.63489532982982,-63.55468756377421
11.35,94.65643435213813,36.46682001808168,-64.06650000926477
11.4,95.3708885500449,38.18911523356156,-64.88706969457624
11.45,95.57796742132385,39.25530199209693,-65.9553077416336
11.5,96.94419699304451,40.72458763156615,-68.19486119044235
11.55,97.67060414535402,42.09504234211068,-69.53710673631205
11.6,97.38639331664632,40.643030915231606,-71.66794715680936
11.65,98.26151425921745,38.48264744928058,-73.75603381196727
11.7,97.41828153295468,37.45141941527638,-72.64082508483465
11.75,98.38972432842927,36.686283430039914,-71.43212122314937
11.8,98.35780331041322,36.155584984475716,-69.37910522607409
11.85,97.71835008248704,36.93495984110561,-68.47281656544293
11.9,98.67884602965923,39.28408546070436,-68.51357564495349
11.95,98.96961820431244,40.35017702896165,-69.56277930306699
12.0,100.35172422820767,41.16045181044342,-72.02313415544695
12.05,102.09473008274047,42.50533560060505,-75.25377434452118
12.1,102.6303472664886,44.23236984617519,-77.25098053350366
12.15,102.56280884218262,44.291332546357395,-79.38609957765534
12.2,101.17614958853281,45.35088860950377,-77.85599857962289
12.25,100.12845254416511,46.259198299381886,-74.29156916441542
12.3,101.11315451871945,45.58083411849578,-72.04326139288816
12.35,100.80489839976605,44.18231576534436,-71.10693994629221
12.4,101.83031434732496,45.84579073757726,-72.36810485556582
12.45,103.97785508408614,46.97163314831838,-75.54167625769125
12.5,104.53250398038406,47.55611125901877,-77.81636102206988
12.55,104.22001711622559,48.67735286900446,-78.21346210175892
12.6,103.58111391962784,47.45112982458381,-79.3446903890596
12.65,101.49387408949833,47.390673464162845,-77.97727080381071
12.7,101.27839358426188,46.59749151270393,-75.21034402207755
12.75,101.76022218623964,44.45829415941551,-72.57509162375793
12.8,101.6218311770257,43.26397923453864,-71.90281055471539
12.85,101.91392329749652,44.64679645999377,-72.74535045604314
12.9,103.0746362547517,46.71112995796011,-74.42158884396807
12.95,103.65528054501098,47.50636087712038,-75.8855555746728
13.0,104.52440718199155,48.12353016342895,-77.63776914005777
13.05,104.94195630799574,48.15998456535373,-79.14963341773571
13.1,103.58430753496475,46.00348496060445,-80.6227417756117
13.15,101.80752673629564,45.17132538913417,-77.5604131428831
13.2,102.45526615987278,44.630276092565715,-75.10073790156895
13.25,100.57772223695609,40.72994041828714,-71.90753205380821
13.3,99.64749136426389,39.45296901474728,-71.09310527508545
13.35,100.17678283666173,41.7529956445253,-71.02878632640157
13.4,101.27627003440489,43.97962649209868,-72.05016014706935
13.45,102.26171522035584,45.02005270379878,-74.53968947798312
13.5,103.76858436206658,46.51497430335173,-77.49406148242454
13.55,104.64754298593824,48.47522903061294,-78.2750670489814
13.6,105.387928247894,49.772185969218526,-79.27417224579317
13.65,104.69158468457545,49.68094291202455,-78.69174657030325
13.7,105.2933129005989,49.16014368256496,-77.4509947527597
13.75,104.67397122969484,45.436118408268754,-75.32293634800158
13.8,103.67185601728626,43.09323120217061,-73.87127758796979
13.85,103.54753174308561,44.677104765527325,-73.73533730580606
13.9,104.51678919532635,46.62299299706534,-75.25096974816192
13.95,105.28857491160288,47.47229781265847,-77.8130726978595
14.0,106.10758603436012,48.939042841123566,-80.64644974121224
14.05,106.33330768323856,51.150697670814985,-81.88167786951287
14.1,106.59745994567615,52.427453727366746,-83.25119714096466
14.15,105.48165927890156,51.140016212096945,-83.54164938753337
14.2,105.26342651774378,50.75996491710265,-81.35955179380035
14.25,106.11328198332346,48.32972967883263,-79.62733942664833
14.3,105.45836101850435,45.58586032690887,-78.18015446276237
14.35,105.43380982287992,46.465657904242775,-78.83055304238547
14.4,107.01827441575213,47.56446294916629,-80.88330794086029
14.45,106.78040837556694,47.461183516816526,-82.36662484476112
14.5,106.79717726605695,49.67853031383871,-83.67277743810895
14.55,106.84604620000799,52.44616477112943,-83.07282814957573
14.6,106.72195562129251,52.140036231002064,-83.45026214093785
14.65,105.59901675627437,51.37556178570899,-82.55142380677695
14.7,105.97050205953458,51.140003999268764,-80.44167803450698
14.75,105.51631382752389,47.76557227108184,-78.19973091216318
14.8,105.37827081192539,46.31503848896641,-77.34298037701225
14.85,106.01313185978937,47.24610567547117,-77.63644035514943
14.9,107.45898085235325,48.821733894912235,-80.03359157516492
14.95,107.61165916711943,49.61013889973615,-82.07538221511685
15.0,107.56196208512279,49.803965554120566,-82.57674306812449
15.05,107.48460305010238,47.83623033744496,-83.9313269755072
15.1,107.47205765307355,47.41502236938382,-83.12077203944
15.15,108.18632905491332,44.391469160439804,-82.40240458099723
15.2,107.03675571940055,41.872037830357584,-80.0282397061202
15.25,106.02565120137511,41.99517836146615,-78.03115150252904
15.3,106.39839867148159,43.670119645733585,-77.07787549184002
15.35,106.18698620116575,45.01079731576116,-77.28762842162385
15.4,106.9937750736357,45.319889469985384,-79.31592501409916
15.45,108.30412918650144,44.654346865736066,-82.48015661602335
15.5,108.5870215724671,43.96449111134237,-84.37954125702962
15.55,109.10877555069125,42.21533578622945,-86.28990794070846
15.6,110.45309861516667,40.02873245876417,-88.5813989452337
15.65,109.65594929770023,37.34334935139963,-87.46985742226038
15.7,109.51969361759399,37.407934576728664,-84.88655901240975
15.75,109.47727710769361,38.16106831268331,-83.30082364941329
15.8,108.46211177541564,40.693004490122455,-82.07808265512311
15.85,108.15640093576998,43.563526390243474,-81.10000963686987
