Time [s],Flexion(-)/extension(+),Abduction(+)/adduction(-),Internal(-)/external(+) rotation
0.0,-8.63774737832239,2.2858007437118104,-15.605798435903246
0.05,-8.579291617184163,2.290005409856987,-15.711104040534924
0.1,-8.464454762734615,2.252476713908903,-15.787654963739017
0.15,-8.253058211953519,2.222481779442827,-15.807321303414266
0.2,-8.028839811290748,2.168402097987589,-15.78639423383121
0.25,-7.782148570456936,2.0821548206131224,-15.766782717521432
0.3,-7.548470336138411,2.04389876806616,-15.869991254646745
0.35,-7.378856773979718,1.979616185872055,-15.94391924841297
0.4,-7.060985649235712,1.8507483512976726,-15.967605250458899
0.45,-6.667212083479767,1.6602881406202565,-15.948174255739168
0.5,-6.265164830749626,1.5504722795110348,-15.97447706564434
0.55,-5.900209804115107,1.3780169875559973,-15.905357023224575
0.6,-5.443175638929727,1.2181454502723055,-15.787349652786137
0.65,-4.9486380207808605,1.0964623414170382,-15.62637544816099
0.7,-4.6347445147403645,1.0507657016109022,-15.160704398575986
0.75,-4.778080439745367,1.2722780743849036,-14.792877313288333
0.8,-5.026618418611334,1.796630590520097,-14.672446395164412
0.85,-5.2741337138727005,2.3914304079243864,-14.836372623947403
0.9,-5.636521045483023,2.9902039859110086,-15.143685500714874
0.95,-6.043879717200727,3.3858340277841155,-15.56038684849884
1.0,-6.846199437475727,3.7065802098587985,-16.142607512683547
1.05,-7.999541490338737,3.938926222394926,-16.619455832810903
1.1,-9.405146420568327,4.002243275044038,-16.955715998763452
1.15,-10.678587933400328,3.9213766658910445,-17.124692571546575
1.2,-11.972770463521405,3.534143926949182,-17.117598423615068
1.25,-12.949696492367254,3.3021131598629445,-17.02071059929122
1.3,-13.65032588433835,3.288187865960718,-16.800351162417915
1.35,-13.823366415559155,3.160046238573584,-16.05449762674392
1.4,-14.136117899348813,2.773278287222504,-14.849841393847651
1.45,-14.490133884777995,2.3225944228760094,-13.37543226940886
1.5,-14.609484697900058,1.7604995109311783,-11.551665208248378
1.55,-14.01136537928791,1.1796728712934552,-9.609502566292319
1.6,-13.04395546494588,0.7383697308688075,-7.833283248595229
1.65,-12.10844180243747,0.49240463776867605,-6.24299584324259
1.7,-11.379045662455722,0.35401835632201906,-4.998599155482267
1.75,-10.863994148814665,0.3135897136609295,-4.0759790209290685
1.8,-10.820748061088077,0.1332627094064958,-3.642928365662425
1.85,-11.041587567223429,0.04002713180407496,-3.819444498622472
1.9,-11.617757478165995,0.03449340539681972,-4.331665995376278
1.95,-11.946315080799588,-0.0686792805694479,-4.550022765484188
2.0,-11.8532638783787,-0.3034668897207491,-4.651248806605615
2.05,-11.836084948513443,-0.31131250422100604,-5.001031745172728
2.1,-11.516403658811303,-0.20901631731476503,-5.798317714790996
2.15,-11.056669514329805,0.2796677992189952,-6.922911783926886
2.2,-11.506421010391954,1.4840227445024061,-8.413514262780396
2.25,-12.57805981072325,3.07787860297987,-9.380201561109983
2.3,-14.544064717739952,4.373601745703885,-9.476688104150469
2.35,-16.508823704009647,4.53550078079296,-9.8501036350362
2.4,-17.392696314612454,4.043222245209416,-10.785658384249826
2.45,-17.074473350892568,3.387441766260463,-11.970569452576244
2.5,-16.1418694036569,3.151549282787734,-13.209431781399534
2.55,-15.220319126681128,3.3946446668714554,-14.083120504257156
2.6,-14.34309135826201,3.703676835866988,-14.886307919956494
2.65,-13.488029801679424,4.0320297883027,-15.562210599188157
2.7,-12.671379498934748,4.417638177503081,-15.417379643351648
2.75,-12.298249637798442,4.813141758377296,-13.5433649398399
2.8,-12.842644891295816,4.541681834752792,-10.553124866462937
2.85,-14.04382689457998,4.237857727699683,-8.248093062345877
2.9,-15.465374696234626,4.298360892936608,-6.826130777636449
2.95,-16.62349147872247,4.938750107633114,-5.593438179561602
3.0,-17.758449728118666,6.245646332092087,-4.141333969475526
3.05,-18.252142763220565,8.399197037857547,-2.923415664840766
3.1,-17.707357981530244,10.964481617594164,-2.328713446590713
3.15,-15.934441373553996,13.39747087401709,-2.529735612204569
3.2,-13.612389543842664,15.458963408314402,-2.882693001043477
3.25,-10.521023772463979,17.024332753190784,-2.6921348734832233
3.3,-6.800865339606532,18.14849898077984,-1.500078757088205
3.35,-3.462199953193043,19.128026095832617,0.05152578127641438
3.4,-0.5503749172492276,19.96357380821801,1.1715535657736602
3.45,1.9960728327840584,21.053478444048643,1.5067366548036811
3.5,4.298125893455198,22.384932752915372,1.3400764099685045
3.55,6.1531286057790044,23.356587318751377,0.2109415410692271
3.6,8.29162016548954,23.9900273177897,-1.9289870194501872
3.65,10.006842809413563,24.74118471613609,-3.4237859183468897
3.7,10.967241541614724,25.141944286584454,-3.46134482344615
3.75,12.02994708085856,25.290320077501168,-3.0575249914694944
3.8,13.253739492395077,25.331943554742956,-2.229006902157706
3.85,14.671371776330345,25.729251623992692,-1.0293792019049413
3.9,16.58965400747291,26.92217453593839,0.1578517082685173
3.95,18.998769648759744,28.52411498371687,1.1707085865781663
4.0,21.034969814313985,30.094182917929736,2.04617059912662
4.05,21.780130252111167,31.644986239389695,2.894872216534142
4.1,21.377247785601433,32.4214316027534,2.486806343135381
4.15,21.003906110813254,32.541176244507554,0.4709428229227709
4.2,21.022592956182006,32.23769580741435,-1.036512371232916
4.25,21.75380151963107,32.26325025828724,-1.1953329451968853
4.3,22.834748058608138,31.914618200504506,-0.6345746299966015
4.35,23.479737214517122,31.767200664881972,-0.3043792305419405
4.4,22.940221656149767,31.563396515144138,-0.2947013451415156
4.45,22.138576584065937,31.315160575802356,-0.2808622410474064
4.5,21.45006280863727,31.179030418287088,0.0743313594845948
4.55,20.875559130802735,30.91912382149287,0.8258204822661436
4.6,20.817729509566597,30.830241814643,1.2921705315375134
4.65,20.828175799976865,30.059311511373995,1.8450580935395717
4.7,20.670086375721556,29.54912094366948,2.455021975687023
4.75,19.6087558656138,29.623247125031885,2.947262910048869
4.8,18.261650794620156,29.943842619936646,3.1523771779745533
4.85,17.10053852560981,29.993237866147403,3.0792179309691474
4.9,16.88768693244961,30.12261267422046,3.0029536095177596
4.95,17.1176713871644,29.91939335715983,3.063682751513246
5.0,17.432955883533275,29.66241856642969,2.935841851691431
5.05,17.803440285316942,30.39897027223666,2.6235675190426804
5.1,18.3224062543421,31.403721955926827,2.170425835255702
5.15,18.598206400812302,31.994770111587865,1.897747295450687
5.2,18.922238320158627,31.934608619362066,1.937253930441202
5.25,19.401793660824644,31.470292338074106,2.174500121646109
5.3,20.059402931149318,31.20023881070558,2.3685134525333136
5.35,20.44455963044791,31.30118627696094,2.2484037605247202
5.4,20.31561693343393,31.693720732085772,2.0917532489758095
5.45,19.94853697787677,31.96414436543935,2.0198719676189327
5.5,19.571548086314394,32.14160180035355,2.0344683226851528
5.55,19.267532010315445,32.154180015012805,2.1523039211509514
5.6,19.100818816217345,32.24248965493137,1.7221366779058156
5.65,18.884111672745412,32.581907684154984,0.7647896674684198
5.7,18.573390692004185,33.11151350061299,0.06729276220074253
5.75,18.271201371526615,33.44810611079465,-0.048311075530332245
5.8,18.16750735115855,33.32796790086146,0.09325858215981232
5.85,18.05301216848976,32.81480913148158,0.4915951080593722
5.9,18.00394110035841,32.28176732426616,1.0494085534517048
5.95,18.14898342532488,32.069866566855794,1.3422087470595383
6.0,18.023547511839194,32.10681153565415,1.3768675186314843
6.05,17.508485904766914,32.327511936633876,1.3481446196564355
6.1,16.962583699468183,32.39236344631143,1.190889584262367
6.15,16.57232852125909,32.22570953026005,1.2330539964499545
6.2,16.294617815875,32.16349853041181,1.2515126006747073
6.25,16.03601372244329,32.45158516073054,1.4221645952455593
6.3,16.01721441761212,32.7031125553253,1.7194438398637666
6.35,16.666377328428993,33.043695493501666,2.0016612746166182
6.4,17.748897291260015,33.556607632647754,2.307147530373155
6.45,18.845777007269177,33.89657081990481,2.895683048200131
6.5,19.890279270663918,33.70682201064088,3.720877695350752
6.55,20.610809324930326,33.22546394483489,3.9549074009233385
6.6,21.714117697682646,32.11660740075369,3.0479484847215135
6.65,22.96753493741209,30.37647197328252,2.218937524132087
6.7,23.658073328575213,28.68688958299835,2.3261091405509804
6.75,24.137168692224122,28.155644627341925,2.328855856404444
6.8,23.90962118106394,28.90713630192241,1.6050501825390289
6.85,23.476213805169408,30.241382078814873,0.12920663558412832
6.9,23.03199032689538,31.070304321437888,-1.2922294469645899
6.95,22.50161849973335,31.163651862475806,-1.9387647186422141
7.0,21.932789993963222,31.078397125754055,-1.748920816922728
7.05,21.289557038457147,31.367898441505268,-1.3207260978460855
7.1,20.259770329311095,32.14956367316619,-0.09757235728594248
7.15,18.049063974639214,33.21062927758096,2.336434040487204
7.2,13.821569843073839,33.84323749257266,5.297774885485166
7.25,8.060136027490632,33.20869313184697,7.450557602671867
7.3,0.9523962031094172,30.623488339605682,9.491920124328503
7.35,-7.236690034829507,26.19034656845651,11.701819207972076
7.4,-14.672789627908006,20.552919837142394,12.991096753238121
7.45,-20.957451075968066,13.882227516578043,10.342902520453748
7.5,-26.161726663397232,8.255926998256166,4.691761583016608
7.55,-31.363936070120314,5.42883351512288,1.274498904513539
7.6,-34.8744852708575,5.521526056965978,2.299109721351193
7.65,-34.23659738062541,7.377910016387197,5.576054484747867
7.7,-31.025036120051556,10.15642748313081,7.955059014989756
7.75,-27.212913505094573,12.118523538629587,8.062996459209891
7.8,-23.050166788346907,12.853941803440405,6.974599551729992
7.85,-19.80854650670835,12.467539843188193,6.449466396237303
7.9,-17.505491377096288,11.299608000753674,5.215377560277007
7.95,-16.431684427791282,9.747085037994799,3.9772153826565475
8.0,-17.294299423818792,7.421724356979373,5.3817455355084745
8.05,-20.028394104497377,4.998229285905478,7.790289363246376
8.1,-23.55140147386571,4.299763979862878,8.678171301014977
8.15,-26.59050840114869,4.838852834808006,9.02513638437858
8.2,-28.58879736962699,5.395105188796432,10.739505585812292
8.25,-29.517569468215772,5.058476265866259,11.877294055897721
8.3,-29.412855499030403,4.58260849940149,11.571143385426085
8.35,-29.37657678177687,3.997827563650934,11.306511011772322
8.4,-28.724799760405418,3.02402837881269,11.35414571379469
8.45,-27.5309770740717,1.8244755986270438,11.347219741454953
8.5,-25.434242594847948,1.1610321610047603,10.740737439230438
8.55,-22.788700158372293,1.3609670875420663,9.347099938533235
8.6,-20.799422351241798,1.7587335829091129,7.198958918068972
8.65,-20.137760584133286,1.9469471201651123,3.5719748500913053
8.7,-21.008330452330632,2.6779175698711146,-1.2497855186305722
8.75,-23.189490195574713,3.9535355117624196,-6.559135955938137
8.8,-25.912392574136344,5.188888813613546,-12.693549734067314
8.85,-28.11242491174037,5.767452035728668,-19.63052093164399
8.9,-30.670528204027082,6.8508707106689135,-25.942040855676616
8.95,-32.46992806209337,6.378398387976827,-32.72685636986892
9.0,-35.986541271074,5.6777721854779735,-37.95190506220537
9.05,-40.397201220853304,7.362799945633301,-40.128631886439884
9.1,-43.68467970085975,9.17667500242894,-37.381736123707945
9.15,-48.075721481476144,9.383666098961903,-30.354034009051095
9.2,-53.25332154574095,11.32556830744155,-24.81993060524402
9.25,-58.828599697914136,15.070769748980926,-24.903567135559864
9.3,-63.9380799221241,16.742058012028956,-26.87270547080878
9.35,-67.53673422965701,16.112234317255037,-26.478341533610173
9.4,-71.29797380405263,15.100973620009102,-25.238348459455
9.45,-73.72943010378167,15.142134085149966,-22.86009522380171
9.5,-74.07774337987243,17.345009146941678,-24.183931249648722
9.55,-72.98158732936379,19.10611697969661,-25.482453592467003
9.6,-70.9406281733249,20.12070203381903,-25.50347814226482
9.65,-70.99866546920012,18.893764476579232,-24.898813245465956
9.7,-72.22205271432452,18.78086759374067,-22.547995906016343
9.75,-72.4583100327321,20.192125669951185,-21.51455329398026
9.8,-71.73062505745011,21.468926183512067,-20.25504895147972
9.85,-73.03857204998029,22.70745312645633,-19.497925222827885
9.9,-75.64455970211048,22.534348895815224,-18.830547269236842
9.95,-76.83793097385056,21.331786139909475,-20.84645044811442
10.0,-76.90763151692414,20.83140992767722,-23.413904564286813
10.05,-74.41020075596951,21.721528505091733,-25.9443347205257
10.1,-71.7921448227081,19.824860345615924,-26.37603032714571
10.15,-69.04437160498145,18.53154416833412,-23.528575112016323
10.2,-68.43650553058684,20.034253171805666,-21.381732785833908
10.25,-68.6228576872851,21.176504307325843,-20.037456011978477
10.3,-72.44558845865814,23.25779765269795,-19.42824719052664
10.35,-77.4750040094552,25.31570719631835,-19.524003437254628
10.4,-81.05529778463,24.959487960878327,-19.25243854638939
10.45,-81.87418952138204,24.5357432593085,-21.004250733193132
10.5,-78.79860313704836,25.708864256666235,-22.893749663819023
10.55,-72.35150036457688,22.441410674203667,-24.589300594835137
10.6,-67.31105967305368,21.003795682944745,-26.67235805783921
10.65,-65.30151856299206,20.597056285123426,-25.897509887154847
10.7,-62.00525367065613,18.341441378714933,-20.602045417868993
10.75,-61.9653468055475,16.485186187844402,-15.297364638824476
10.8,-65.73092697361793,16.64681820472798,-13.981533416427231
10.85,-70.47449605005896,19.58569938518356,-15.115499260313337
10.9,-75.43812390700549,21.298806155617005,-15.060178642894181
10.95,-79.30028350687203,20.427946947772295,-14.95207768212376
11.0,-80.10716631818217,19.864416664480725,-18.40013449708524
11.05,-76.83129312002592,19.697637545720738,-18.169544503800992
11.1,-69.0366586408926,18.918763964067765,-18.587622992319574
11.15,-63.61838498922948,16.747727748893876,-18.292093948570475
11.2,-61.04080755391677,17.515162597001684,-20.35305016025835
11.25,-60.97929888512806,20.45715551017544,-20.620480905399987
11.3,-60.749630234503634,19.92694974669995,-17.75198508668583
11.35,-64.08145335869798,18.4734495511449,-14.822894627648969
11.4,-67.2794478124898,19.22117551103862,-14.83649774219802
11.45,-68.85461696261959,19.421756397307384,-14.784616740386355
11.5,-69.67790701632289,18.296477727698157,-14.978845743070714
11.55,-68.53648910245747,16.432806186812563,-18.93638629593165
11.6,-64.2242022502637,13.29577089141994,-20.811555654973844
11.65,-59.973434674515254,14.350061212554435,-25.997208410616043
11.7,-55.65853474438194,14.089143257565237,-26.52848925646214
11.75,-54.77022434661121,14.696520982090075,-23.303660712624993
11.8,-53.47985713260693,16.99570630082438,-24.170645016470157
11.85,-53.06626106034365,17.465802709104945,-23.278944283226135
11.9,-57.085465421873785,16.38025303213038,-18.535899004235787
11.95,-61.5316513034232,14.793201206276681,-13.369307509422626
12.0,-66.52542905692131,14.641968522258813,-10.986333488721927
12.05,-70.74675274617549,14.596460628967714,-11.897876600696659
12.1,-71.19977453986893,17.023079922226387,-16.47413203323419
12.15,-67.09060505690387,19.87351796735633,-19.72061086238036
12.2,-64.68485449521135,18.5291111675472,-20.591376309797315
12.25,-63.6029652001811,16.88533042871008,-20.082511668082446
12.3,-63.07700253281737,18.319876990475052,-18.824042653883588
12.35,-62.43166998504947,18.020019340024383,-15.769654083462296
12.4,-65.07194252928385,17.052805674442922,-12.779572162372675
12.45,-69.27283250414253,17.782935224013254,-11.261773226752997
12.5,-72.70115944761655,15.513974897066367,-12.183220233512824
12.55,-73.88707189607011,15.240960227095632,-17.58507029463775
12.6,-68.95480548548541,18.437624591963854,-23.146340393041353
12.65,-61.195033237138915,21.28404852405723,-30.798722258492376
12.7,-55.45671273038843,27.127885526951847,-36.902387460660165
12.75,-52.254173182242106,32.809700415449704,-38.953783465052226
12.8,-51.50396391105484,34.082925518699255,-36.45943808110781
12.85,-54.5013331768355,32.74810041902843,-33.292873729399595
12.9,-59.35627219468001,32.045201420525316,-32.26748828869162
12.95,-62.859994759523325,29.334463884647516,-31.81268156758258
13.0,-63.37190058137708,28.87107299128551,-35.76369892388177
13.05,-60.71044711130532,27.20493737123237,-39.44598465795162
13.1,-55.35023523428582,27.262291371779533,-44.48420204437268
13.15,-51.392733643389214,26.785827432898202,-47.45846968750568
13.2,-49.76626022787003,28.16821726413058,-46.680567801728934
13.25,-45.87354981425333,29.483133098307448,-45.68901597601265
13.3,-45.19057274458017,29.746923317527823,-42.17732591357589
13.35,-49.5261178112058,29.845387681178593,-37.90747495515386
13.4,-54.838571867868716,29.311819053838548,-33.37822200369452
13.45,-58.573150509765696,27.07773436683214,-30.350084261615866
13.5,-61.71162785678473,26.711737016162818,-32.4635289203913
13.55,-62.883167218816865,28.043962712602855,-39.04655142824311
13.6,-59.4671173094428,29.305304511687346,-43.837280178808925
13.65,-55.77039732926325,27.695383083832994,-47.74619402260503
13.7,-52.684730938627254,26.5518224776915,-44.72005911468133
13.75,-49.14446478423639,27.94287181578968,-42.024049162648275
13.8,-47.2183182721816,29.521471822981027,-39.921807328887006
13.85,-49.29090229795471,30.042391819824644,-37.11986194007036
13.9,-54.12473309149175,30.19329664004402,-32.50932257774599
13.95,-59.03124825217452,27.922157901041185,-28.221293921352707
14.0,-63.25509426332634,25.84769428448238,-28.632808744570998
14.05,-64.45989375730312,27.32892574710762,-35.756125364759704
14.1,-61.89473773444268,27.496090715761817,-39.81979854687236
14.15,-56.677266883610734,27.867607701588845,-43.12411173161438
14.2,-54.46781515214878,26.93207615311279,-41.26890011064376
14.25,-51.48449170086656,29.209078538522174,-38.318001917571166
14.3,-50.13995047059745,30.39833809869322,-34.500774022050315
14.35,-52.115662461987554,28.613916602736513,-28.974206139788024
14.4,-56.3272947273314,28.47319842353572,-25.420232679425013
14.45,-59.850315876128015,26.380133496998944,-25.44805808971212
14.5,-63.730946192987616,25.51787982796679,-30.13969418866405
14.55,-66.08814177577304,27.837518701399212,-38.65719163372665
14.6,-60.862194924134364,34.69962479519007,-46.587533567421524
14.65,-58.25792689461563,34.765806950201906,-47.67155450832206
14.7,-57.88381778414926,32.09597737353754,-42.204509444770025
14.75,-54.792326397639066,34.146622446793685,-40.61230842516585
14.8,-54.645134382401366,33.67399739970413,-37.47992109870644
14.85,-57.95295004028209,30.548668793264614,-33.50178146182357
14.9,-62.269229434589874,28.57421878867283,-31.90100002986058
14.95,-65.1130778542101,27.420411962128256,-34.722819315925825
15.0,-66.50264011069463,26.974150631323237,-40.99921202352567
15.05,-60.8075084467748,32.683689270948676,-50.26364520491924
15.1,-60.37526608649452,31.53921758897334,-53.35321763531963
15.15,-57.26549694822965,30.1922248863666,-46.27963946795916
15.2,-56.80823932973004,29.0999933847614,-39.35599933929284
15.25,-56.090756891921416,30.360725918544755,-37.984980910840676
15.3,-58.370342820822664,32.71418891228479,-37.835074532613135
15.35,-62.148843214322014,30.338811785565678,-33.80045330877684
15.4,-65.59954891844743,24.312185994012626,-30.169049288517517
15.45,-66.79525496573122,25.09908162179792,-35.37787927665923
15.5,-66.74221892127042,28.635735973911174,-44.36924700046254
15.55,-63.18409309401117,32.015523875845325,-50.27592215530481
15.6,-59.957764091195685,31.125993874341155,-48.98975113625556
15.65,-58.96151152900267,22.114735928100867,-35.30141197128059
15.7,-58.93664461714657,22.720740407378152,-31.35073461601888
15.75,-57.88625835539424,27.97669285778129,-32.564474656937186
15.8,-58.43791833524342,29.94996288514551,-30.859712247462504
