Time [s],Flexion(+)/extension(-)
0.0,-9.14860802964769
0.05,-9.255352238968726
0.1,-9.284115281395646
0.15,-9.272289809915216
0.2,-9.227908652417558
0.25,-9.193051366870145
0.3,-9.144751036287772
0.35,-9.00166787427004
0.4,-8.849512451344635
0.45,-8.70162095195595
0.5,-8.600846283837472
0.55,-8.372156079617941
0.6,-8.10240603714613
0.65,-7.860600520754577
0.7,-7.657054990708218
0.75,-7.546291620831311
0.8,-7.563806908455925
0.85,-7.502107920482809
0.9,-7.387384873483105
0.95,-7.161056210236967
1.0,-6.607590559126314
1.05,-5.665840355457016
1.1,-4.6112723202984425
1.15,-3.625603731812431
1.2,-2.7129156854383796
1.25,-2.1945874528097313
1.3,-1.9410295442783823
1.35,-1.546593124782478
1.4,-0.33099302174020256
1.45,1.8925553796355716
1.5,4.417172141600556
1.55,6.108929633901738
1.6,6.941519565791409
1.65,7.031116774444785
1.7,6.433524870590953
1.75,5.378164195709813
1.8,4.810010114970894
1.85,4.605919669104925
1.9,4.628968078681809
1.95,4.824189002779801
2.0,4.836537584162404
2.05,4.36450149550109
2.1,3.247159703989795
2.15,1.7921678464549429
2.2,0.02150432361113406
2.25,-1.3392758618480318
2.3,-1.9895124398482018
2.35,-2.812004677660733
2.4,-4.041913292638375
2.45,-5.7065850258089545
2.5,-7.0553221828510235
2.55,-7.109409286271783
2.6,-6.690018722266098
2.65,-5.850341315918548
2.7,-4.4740149113895065
2.75,-2.56245404021691
2.8,0.20451283815309695
2.85,3.2129141359733033
2.9,6.10268361088381
2.95,9.312544197116244
3.0,13.04121168412484
3.05,16.82838216468903
3.1,20.179057694788202
3.15,23.144451550174086
3.2,25.603403555985192
3.25,27.53139880207098
3.3,29.126859075708566
3.35,31.459548173820924
3.4,34.73751697339055
3.45,38.523692204643076
3.5,42.73252560995727
3.55,46.64316021971159
3.6,49.4285922025216
3.65,50.96011057402546
3.7,50.592202087632586
3.75,48.595375544338594
3.8,45.3550317527215
3.85,40.677881311151744
3.9,38.86177457255707
3.95,36.781282126065214
4.0,33.436578140048354
4.05,30.077557708042573
4.1,27.113435570532133
4.15,24.373634092700197
4.2,21.818161607746706
4.25,19.651795241965416
4.3,17.910823704983887
4.35,16.73558594218489
4.4,16.147778407750167
4.45,16.08407180879847
4.5,16.656388376258743
4.55,17.942442003012577
4.6,19.4674701857548
4.65,21.375749623130766
4.7,23.980172489268476
4.75,26.456444514739196
4.8,28.050541038191838
4.85,29.18173901436618
4.9,29.809570436739
4.95,29.97608905563142
5.0,30.223556360617827
5.05,30.955557783294907
5.1,32.368783698412486
5.15,33.83111116984307
5.2,34.35965173133401
5.25,33.87969899620086
5.3,33.2801473145395
5.35,32.995110681559034
5.4,33.22406442417103
5.45,33.87999037626914
5.5,34.172090598853366
5.55,33.82141044539716
5.6,33.03615661435085
5.65,32.389728544282974
5.7,32.05691980046954
5.75,32.01420541620583
5.8,31.942249089971625
5.85,31.852379642319914
5.9,31.68158055562781
5.95,31.647766571131324
6.0,31.93883371069804
6.05,32.574082868353166
6.1,33.43062362652658
6.15,34.05781454661967
6.2,33.919046206718726
6.25,33.414356782823035
6.3,33.06896237497443
6.35,33.02584533324719
6.4,33.30967560142834
6.45,33.78963627132809
6.5,34.598224727165146
6.55,35.59372775912896
6.6,35.8943940887119
6.65,35.30495500027544
6.7,34.57490473095302
6.75,34.14848710163189
6.8,34.06818993405772
6.85,34.20245011919776
6.9,34.31144671608952
6.95,34.19349319922223
7.0,33.91152746747388
7.05,33.74261823761885
7.1,33.76856743866582
7.15,33.66406845210812
7.2,33.35681665267448
7.25,33.020390178379195
7.3,32.88468493954692
7.35,33.06345768573166
7.4,33.620864783887384
7.45,34.68371792966306
7.5,37.78567613016529
7.55,42.81933525522568
7.6,47.003428539929395
7.65,49.403198373235966
7.7,50.243906583913756
7.75,50.04387604681745
7.8,49.117036142612044
7.85,47.51717187124246
7.9,45.149037719688906
7.95,43.228577492668435
8.0,42.68172782448126
8.05,42.73834808439822
8.1,42.89429600379191
8.15,42.59885823772582
8.2,41.33798340622375
8.25,38.4231932004489
8.3,35.13591019074448
8.35,31.927300028758975
8.4,28.594798947768147
8.45,25.162867112738606
8.5,21.575202846250555
8.55,17.8289125533847
8.6,14.28453277249109
8.65,11.56948117044787
8.7,10.22847179445004
8.75,9.902155799954047
8.8,10.071857417419126
8.85,10.27037044654278
8.9,10.63483411224989
8.95,10.546391674919317
9.0,9.860592847561916
9.05,7.992002636718216
9.1,5.7098555340968735
9.15,4.570094813075226
9.2,4.170345556197353
9.25,5.112198041077644
9.3,4.563292686624134
9.35,-2.1633842974203907
9.4,-4.01880570626283
9.45,-5.912507218115865
9.5,-7.8555956703496586
9.55,-9.579607350434587
9.6,-9.810559571494817
9.65,-9.834911571599616
9.7,-8.868131002710687
9.75,-7.84944622685399
9.8,-6.800948954473522
9.85,-6.564248871941625
9.9,-7.679861334213973
9.95,-9.682756991568867
10.0,-10.557260671473095
10.05,-10.935807485480204
10.1,-10.61887724380676
10.15,-10.250635319058318
10.2,-10.371589318917417
10.25,-10.469691332390768
10.3,-10.494108087658354
10.35,-10.411326727504724
10.4,-9.985060051518607
10.45,-9.71807097965952
10.5,-10.016722986637895
10.55,-10.490514562178417
10.6,-10.272473763315492
10.65,-10.369715435697628
10.7,-10.521532659401107
10.75,-11.038162434654943
10.8,-11.726208426493343
10.85,-12.440828810865984
10.9,-13.164260773334977
10.95,-13.278571400719457
11.0,-13.26889826842776
11.05,-13.315652529867128
11.1,-13.333712350350341
11.15,-13.192088504455587
11.2,-13.322152842843549
11.25,-13.504123893086415
11.3,-13.358659035397746
11.35,-13.24168165773266
11.4,-13.253772824340743
11.45,-13.447471960140373
11.5,-13.337206206401168
11.55,-13.247940916172647
11.6,-13.23545344797025
11.65,-13.180343469375572
11.7,-13.544136519017568
11.75,-13.444240973251746
11.8,-13.676545520364256
11.85,-13.47923352450812
11.9,-13.225378814831544
11.95,-12.741424361745562
12.0,-12.166623145672775
12.05,-11.919122575480463
12.1,-11.936635761213314
12.15,-12.156024225741147
12.2,-12.448362943299962
12.25,-12.26978936814233
12.3,-12.113572735570505
12.35,-12.136987289592408
12.4,-12.204208425038905
12.45,-12.497927975114568
12.5,-12.728176579424062
12.55,-12.580912421344753
12.6,-12.50171577932715
12.65,-12.809522779193513
12.7,-12.820172525832191
12.75,-13.121655193913035
12.8,-13.226792230757153
12.85,-13.034781352286261
12.9,-13.435138175119533
12.95,-13.71203308228305
13.0,-13.294819164752482
13.05,-13.075841260285905
13.1,-13.272665315224287
13.15,-13.19880884947411
13.2,-13.304406264092973
13.25,-13.44834026370613
13.3,-13.254005114053918
13.35,-13.33978306529431
13.4,-13.778602295723184
13.45,-13.850554110415858
13.5,-13.53034362197832
13.55,-13.644476108767254
13.6,-13.87498281018894
13.65,-14.0172879053691
13.7,-14.036140257832683
13.75,-14.167437930859068
13.8,-14.272483508890735
13.85,-13.800922357566257
13.9,-14.0143115932813
13.95,-14.277444851261775
14.0,-13.96423476942276
14.05,-13.772343599610583
14.1,-13.728123405662176
14.15,-13.753220569849136
14.2,-13.822177468250048
14.25,-13.694010666907229
14.3,-13.946635018854527
14.35,-13.783044932960266
14.4,-14.017517145149705
14.45,-14.181073124569545
14.5,-13.827344449618254
14.55,-13.570911214314947
14.6,-13.565953466865478
14.65,-13.74521758218071
14.7,-13.749898672730973
14.75,-13.77968961265595
14.8,-13.670707305665124
14.85,-13.39848589354998
14.9,-13.454317660167249
14.95,-13.458249069768236
15.0,-13.05740283856488
15.05,-13.21789375738151
15.1,-13.712103136204425
15.15,-13.835029466209974
15.2,-14.391540145539231
15.25,-14.016216741025284
15.3,-13.883588506832957
15.35,-13.792876106105469
15.4,-13.065469090122996
15.45,-12.273634902321906
15.5,-12.126476775325688
15.55,-12.55262170475003
15.6,-13.106674838908848
15.65,-13.571335207665687
15.7,-13.76005569471315
15.75,-13.494242399080363
15.8,-13.410489838722029
15.85,-13.208570928372632
15.9,-12.64259214690106
15.95,-12.129195690143392
16.0,-11.683419909403252
16.05,-11.43255123561778
16.1,-11.564654912485086
16.15,-11.899918437442269
16.2,-12.027766666946464
16.25,-12.092497369066727
16.3,-11.422668349960773
16.35,-10.544285213518368
16.4,-9.505615685444486
16.45,-8.89754810832106
16.5,-8.659951060502934
16.55,-8.713401536491675
16.6,-8.990984905591421
16.65,-9.497425904641027
16.7,-9.838539491945438
16.75,-10.34495298222108
16.8,-10.973472734519046
16.85,-11.307187607084106
16.9,-11.128087798122248
16.95,-10.888866888447783
17.0,-11.039581636763408
17.05,-11.134768377225326
17.1,-11.362927081613373
17.15,-11.801481634826484
17.2,-12.169242778677116
17.25,-12.736443080954754
17.3,-13.12746067712299
17.35,-13.069237263588137
17.4,-12.978049859786994
17.45,-12.715126027110827
17.5,-12.787268582290752
17.55,-12.662520730025049
17.6,-12.325765992775901
17.65,-12.158873574760946
17.7,-12.100394089989212
17.75,-11.691629100020746
17.8,-11.50549285592696
17.85,-11.051832943863065
17.9,-10.894721782959289
17.95,-11.254907325035402
18.0,-11.337651808170612
18.05,-11.37686513798423
18.1,-11.325999546963446
18.15,-11.028114940187988
18.2,-10.655075214294882
18.25,-10.243837026152182
18.3,-9.69629145369888
18.35,-9.351776267751163
18.4,-8.607911866861954
18.45,-8.374252131861502
18.5,-7.901737733323364
18.55,-7.235824830899194
18.6,-6.497730343963413
18.65,-6.283047461360196
18.7,-6.456516069387611
18.75,-7.0408262676789155
18.8,-7.649839486476767
18.85,-7.844676971064506
18.9,-7.0295180013213265
18.95,-6.453050386326088
19.0,-6.036186200535557
19.05,-6.57207703707857
19.1,-6.8387138256948035
19.15,-6.6834372512572555
19.2,-6.556966156198033
19.25,-6.9811586676176365
19.3,-7.721281023442154
19.35,-8.15411323419781
19.4,-8.154903244817934
19.45,-7.587575655098731
19.5,-7.517225756151893
19.55,-7.495533095021891
19.6,-7.10044816060528
19.65,-6.3085095403710945
19.7,-5.655854129568273
19.75,-5.430187782988189
19.8,-5.23508854726351
19.85,-5.2995627625663415
19.9,-4.421461620886141
19.95,-2.0112927534500393
20.0,2.0541974972244326
20.05,7.842087748839254
20.1,15.858606189834646
20.15,22.676526716226558
20.2,29.21771008077964
20.25,34.57589697868314
20.3,37.29240853045127
20.35,37.54209827858616
20.4,35.042504860895036
20.45,29.71049479714876
20.5,21.548629403584666
20.55,11.244508162046014
20.6,3.5983353085501353
20.65,3.0395281798078724
20.7,7.002345501391569
20.75,12.251578057205423
20.8,15.930669889205992
20.85,17.16344094743337
20.9,16.97283480714068
20.95,15.781054583935479
21.0,13.806018354715336
21.05,11.621687067338291
21.1,9.491964368700797
21.15,7.807744461180052
21.2,6.6874961646784294
21.25,6.169245431313474
21.3,5.297191131958583
21.35,3.3966212512515384
21.4,0.6769089890682776
21.45,-4.062463351193683
21.5,-8.468340987339463
21.55,-11.035779796431266
21.6,-10.897335935105001
21.65,-9.262858273494981
21.7,-7.067123189671631
21.75,-4.071944564881564
21.8,-1.7034502706910022
21.85,-0.4279786054288186
21.9,0.9209279541493869
21.95,2.7953615924566133
22.0,2.8121008457591086
22.05,0.7458548954684245
22.1,-2.0805660615203903
22.15,-6.27422384858928
22.2,-9.374451025893363
22.25,-9.393517637292002
22.3,-8.399829796858931
22.35,-7.072186632837261
22.4,-6.223479216078579
22.45,-6.416771549092935
22.5,-7.728891106799603
22.55,-8.088608986771067
22.6,-8.04695028224512
22.65,-7.968819140006745
22.7,-8.482418584769311
22.75,-8.823661505213893
22.8,-8.564572387534707
22.85,-8.198592303354618
22.9,-7.97237184822263
22.95,-7.871591370078566
23.0,-8.163204181596917
23.05,-8.485757374227816
23.1,-8.23863412078717
23.15,-7.946026198226357
23.2,-7.811723040171054
23.25,-7.870699694571607
23.3,-8.043642144976214
23.35,-7.82464181869796
23.4,-7.596610633983904
23.45,-7.602324021210822
23.5,-7.656815031763893
23.55,-7.736546317530733
23.6,-7.499705428001777
23.65,-7.281956274665194
23.7,-6.8133448000802765
23.75,-6.205386260608997
23.8,-5.992224226993532
23.85,-5.9721135434366035
23.9,-5.745304713330892
23.95,-5.185944859221115
24.0,-4.927475726595739
24.05,-5.195439370945128
24.1,-5.5029655988156385
24.15,-5.790174026349104
24.2,-6.1389662069800846
24.25,-6.473408943469604
24.3,-6.872337572420434
24.35,-7.325221970696541
24.4,-7.406868729132133
24.45,-7.262212143001188
24.5,-6.918124324757159
24.55,-6.639721191276099
24.6,-6.585509928951324
24.65,-6.73266549199776
24.7,-6.9078230503497595
24.75,-6.877654914770506
24.8,-6.720288301337148
24.85,-6.501745262169024
24.9,-6.542291855723494
24.95,-6.5929544775183775
25.0,-6.712440800967077
25.05,-6.825745560061765
25.1,-6.79109300230851
25.15,-6.865080547496532
25.2,-6.934688408067026
25.25,-6.811924231158499
25.3,-6.624914402883576
25.35,-6.405080400416869
25.4,-6.29097890101101
25.45,-6.223689270286975
25.5,-6.441157349028977
25.55,-6.889643782678609
25.6,-7.208834642028151
25.65,-7.202633030409563
25.7,-7.0646287755364
25.75,-7.037469661380232
25.8,-7.263275472347399
25.85,-7.521317839858215
25.9,-7.479890542977115
25.95,-6.830518209011753
26.0,-6.26745176269046
26.05,-6.363920801399879
26.1,-6.69985161480544
26.15,-7.047055238426945
26.2,-7.387271437607364
26.25,-7.675611936169123
26.3,-7.743907971501158
26.35,-7.493933646361835
26.4,-7.200775710237813
26.45,-7.017243015603877
26.5,-7.175588680814943
26.55,-7.492484652306901
26.6,-7.911013884583022
26.65,-8.108996134949821
26.7,-7.894839307308105
26.75,-7.779079432843976
26.8,-7.7353258768045
26.85,-7.740487560012935
26.9,-7.764769583160191
26.95,-7.916704952948779
27.0,-7.92746078424642
27.05,-7.846638764088573
27.1,-7.653673614070579
27.15,-7.704340783363009
27.2,-7.589753692885235
27.25,-7.5136514651179995
27.3,-7.955052281197671
27.35,-8.44466573514818
27.4,-8.639175858522451
27.45,-8.542844067650554
27.5,-8.043379692016329
27.55,-7.718033746236405
27.6,-7.414902953835852
27.65,-7.362437881656056
27.7,-7.389919836368811
27.75,-7.170460547789903
27.8,-7.132144479139351
27.85,-7.356755046292262
27.9,-7.7030467839200325
27.95,-8.0069897864486
28.0,-8.05419730299661
28.05,-7.941805808238623
28.1,-7.636838580854193
28.15,-7.475502890137142
28.2,-7.824667823827425
28.25,-8.29166845875859
28.3,-8.412808379677372
28.35,-8.452805227014979
28.4,-8.658816040750123
28.45,-8.824101623949032
28.5,-9.067614114008888
28.55,-8.98798747981578
28.6,-8.563809972641955
28.65,-8.29765521110319
28.7,-7.848682605667547
28.75,-7.550648690341636
28.8,-7.282055396706829
28.85,-7.065388400732492
28.9,-6.861598783091307
28.95,-6.63432741492536
29.0,-6.003142622162699
29.05,-5.013059948974618
29.1,-4.381359526684904
29.15,-4.5068135181517865
29.2,-4.907018841192818
29.25,-5.437788160238991
29.3,-6.0411054050140685
29.35,-6.457701573388372
29.4,-6.4456200298050375
29.45,-6.138515396389894
29.5,-6.099068642162146
29.55,-6.12070398986322
29.6,-6.360038056129637
29.65,-6.8516550416667235
29.7,-6.535868671506353
29.75,-6.312942746903576
29.8,-5.714742942493041
29.85,-4.505358113593663
29.9,-3.3850076374136058
29.95,-2.4833648328521467
30.0,-2.879563404880868
30.05,-4.080064786439883
30.1,-5.0116062925172695
30.15,-5.472397076414116
30.2,-5.305968268209215
30.25,-4.878692397702075
30.3,-4.299469272923693
30.35,-4.001429016557138
30.4,-3.7831980523134447
30.45,-3.724662251969615
30.5,-3.9978866740934396
30.55,-4.35448653740966
30.6,-4.442145136241927
30.65,-4.219596256069472
30.7,-4.062008870248461
30.75,-4.11827820311243
30.8,-4.1826310945492216
30.85,-4.217654204125894
30.9,-4.197382311585022
30.95,-4.101708679773867
31.0,-4.051894589207218
31.05,-4.235643026942309
31.1,-4.6236230079030785
31.15,-4.868217807853104
31.2,-5.100768573338168
31.25,-5.338825554627833
31.3,-5.468760786068819
31.35,-5.567895724448584
31.4,-5.570495641788631
31.45,-5.597099084736224
31.5,-5.685089714857829
31.55,-5.611171560708964
31.6,-5.251341556817638
31.65,-4.818382372182053
31.7,-4.341363033021121
31.75,-3.910672168440884
31.8,-3.8554174033408675
31.85,-3.9302887844743983
31.9,-4.295652559784586
31.95,-4.632224330505799
32.0,-4.921383572295571
32.05,-5.162484541309848
32.1,-5.337055607024716
32.15,-5.317601310528881
32.2,-5.346475650991436
32.25,-5.259002860350941
32.3,-5.161628612431835
32.35,-5.158272345116326
32.4,-5.1696552197761845
32.45,-5.321636909710973
32.5,-5.390646131898579
32.55,-5.364258314783089
32.6,-5.565892449022593
32.65,-5.852378109938998
32.7,-5.849135852356204
32.75,-5.391801774807457
32.8,-4.532766532046617
32.85,-4.114370290704806
32.9,-4.190723257082723
32.95,-4.02949425611009
33.0,-3.8607686618356283
33.05,-4.127961401216585
33.1,-4.820533389387453
33.15,-5.773103341553344
33.2,-6.933376899058498
33.25,-7.7279744158875205
33.3,-7.2663393740116105
33.35,-4.696770941328836
33.4,0.6569888613918162
33.45,7.134284458168945
33.5,13.186916799087227
33.55,20.345683416161293
33.6,24.687196654822966
33.65,26.374504871600312
33.7,25.854714783253524
33.75,24.6883175805581
33.8,23.271599090648962
33.85,21.97933226296331
33.9,21.08062101691049
33.95,20.499382206227544
34.0,19.533521300700908
34.05,18.061245306206207
34.1,16.517483244182106
34.15,15.164028948526585
34.2,14.134317050657534
34.25,13.593141817079593
34.3,14.264418056736405
34.35,15.02914375367104
34.4,16.08590136502366
34.45,15.745955484019726
34.5,14.13090277321716
34.55,12.53741696854963
34.6,10.254748497954548
34.65,8.328720012423865
34.7,6.734516536507761
34.75,5.1987567443044815
34.8,4.205883021465589
34.85,4.21648275347737
34.9,4.101328492879712
34.95,3.8751141359746355
35.0,3.891276065317159
35.05,3.8987140907302815
35.1,3.032226443586733
35.15,1.2293115184999939
35.2,-0.7502704052779446
35.25,-2.4396852117742456
35.3,-3.9738745379094507
35.35,-5.144729375942896
35.4,-6.1404873339374255
35.45,-7.094129740045417
35.5,-7.359717723403937
35.55,-6.501487132041207
35.6,-5.210158840582732
35.65,-4.108426036370704
35.7,-3.680855941435956
35.75,-3.6271269240247763
35.8,-3.605750764871272
35.85,-3.6080451169835204
35.9,-3.7879167539204808
35.95,-4.146822122499121
36.0,-4.700017300934499
36.05,-4.93439356948909
36.1,-4.907775569366229
36.15,-4.806269973364808
36.2,-4.7218506089148535
36.25,-4.574756350628887
36.3,-4.502648390055117
36.35,-4.687767000896295
36.4,-4.8749896572546065
36.45,-5.230853338600023
36.5,-5.801869421595371
36.55,-6.2339894506617215
36.6,-6.455012197879302
36.65,-6.43139855995879
36.7,-6.183104780902508
36.75,-5.832316077125747
36.8,-5.575383550692878
36.85,-5.625575587628743
36.9,-5.729788939132655
36.95,-5.8569400492008254
37.0,-5.678395759092854
37.05,-5.489955752840473
37.1,-5.513545807309069
37.15,-5.82358304395627
37.2,-6.130633555891771
37.25,-6.093128381642417
37.3,-5.622192242612587
37.35,-4.970412131035257
37.4,-4.667333377042307
37.45,-4.944101103047831
37.5,-5.522353442978158
37.55,-5.793906434453113
37.6,-5.730641943612403
37.65,-5.314434991666109
37.7,-4.533909252456089
37.75,-3.7159798368094634
37.8,-2.531506208357123
37.85,-0.866683292269776
37.9,1.2303260369389288
37.95,3.8098983843696432
38.0,6.691259142356843
38.05,9.96754054880296
38.1,13.856619638749727
38.15,18.13758059524861
38.2,22.537358565128777
38.25,26.581837740501477
38.3,31.121279710463448
38.35,36.00646750029715
38.4,40.120791615855175
38.45,42.81070130904121
38.5,44.63190481164031
38.55,44.69271142424619
38.6,42.52383588273719
38.65,39.49707871646173
38.7,36.43862179177291
38.75,33.66883980672151
38.8,31.514219315668203
38.85,29.61750191537617
38.9,27.522284198118115
38.95,25.029115031501703
39.0,22.623762912253856
39.05,20.6473243992735
39.1,19.309654930074835
39.15,18.756211864235922
39.2,18.668324553391596
39.25,18.304679313992587
39.3,17.570787627901552
39.35,16.41226535896515
39.4,15.542524056815164
39.45,15.380865646553278
