Time [s],Anterior(+)/posterior(-) tilt,Lateral tilt left(-)/right(+),Rotation left(+)/right(-)
0.0,-8.219611809259888,0.7005340395446903,-5.792677871468046
0.025,-8.21522796062304,0.7059298910537285,-5.786679967570883
0.05,-8.20879863344284,0.7123870685354583,-5.773760053360341
0.075,-8.20096964504268,0.7164105837768088,-5.753410968368434
0.1,-8.19036564460797,0.7189198237105039,-5.729392558080305
0.125,-8.176782265292248,0.7226704850157539,-5.70658288548328
0.15,-8.160205418929294,0.728457809625941,-5.688812192173381
0.175,-8.139978955748873,0.7358140776570278,-5.678813049353259
0.2,-8.117573939706107,0.742735156855725,-5.675987571643974
0.225,-8.096449994451751,0.7472403112583641,-5.674317469578994
0.25,-8.079403246534822,0.7494357792691828,-5.666807491386419
0.275,-8.067652378371502,0.7510927094130354,-5.652919244477903
0.3,-8.06111657578723,0.7529867667623074,-5.636392466909847
0.325,-8.058557954762135,0.7541105170350625,-5.619868895108495
0.35,-8.055954139696144,0.7551686103774917,-5.60655672562724
0.375,-8.050969998364163,0.7552170205932311,-5.596626164023151
0.4,-8.044262756483528,0.7502168697570855,-5.584791470907551
0.425,-8.035008932025036,0.7420009806100104,-5.568786290337379
0.45,-8.023261939183538,0.7364182203766356,-5.552228029354301
0.475,-8.012068895559214,0.7342665012692254,-5.537843357258101
0.5,-8.002256494350947,0.734138111447737,-5.524710551930809
0.525,-7.991812076823539,0.7355401957343628,-5.512810341059541
0.55,-7.979741386784429,0.7376800965337966,-5.50345708296236
0.575,-7.967332666362858,0.739003203050481,-5.4969878883190235
0.6,-7.955932493128282,0.738171511843613,-5.492433737331967
0.625,-7.9456880743256555,0.7354838859342296,-5.488616755241456
0.65,-7.936817505786737,0.7317034201452074,-5.484388818954746
0.675,-7.929484987258781,0.7257334796591588,-5.478801408565185
0.7,-7.922726583657769,0.7173043051105412,-5.471754463162597
0.725,-7.914655252631264,0.7090657132810924,-5.464718398895129
0.75,-7.903793062306496,0.7035140971935462,-5.458789128808362
0.775,-7.890186240038866,0.7011637833435508,-5.454157308314713
0.8,-7.875953182377763,0.7008319903624857,-5.450438429172077
0.825,-7.863818202025808,0.6999028619765842,-5.446104107809645
0.85,-7.856766776362065,0.6956731959807251,-5.438934928010681
0.875,-7.856580839125817,0.6883036097913509,-5.428273763461422
0.9,-7.860158628689766,0.68098404868538,-5.415701581886627
0.925,-7.863815297805934,0.6772901066425955,-5.402545817614045
0.95,-7.8669053829183735,0.6783121023892248,-5.391587843345451
0.975,-7.8678640898324295,0.6823175439514786,-5.387556974912128
1.0,-7.867101420704286,0.6881231840771382,-5.386817515904166
1.025,-7.865202976628147,0.694888872232599,-5.386229463319535
1.05,-7.863193977741015,0.6994876814829515,-5.385778078180929
1.075,-7.860923194242362,0.6990242201901264,-5.386091359928487
1.1,-7.85651553874933,0.6951507281936785,-5.388865851065102
1.125,-7.850040265527433,0.690326440652011,-5.395539495594437
1.15,-7.84374711586813,0.6825046724800724,-5.4057206378041895
1.175,-7.8398491176312435,0.6717895955712903,-5.418210059703878
1.2,-7.838253566318706,0.664466707629179,-5.4318273673115405
1.225,-7.839216098602758,0.6636982747232647,-5.446326346166759
1.25,-7.8411032180136235,0.6668996033395579,-5.461226010721302
1.275,-7.8377255654006985,0.6715696643760071,-5.477787851825323
1.3,-7.8270405912818735,0.6779046572809009,-5.496189127328616
1.325,-7.813582457975095,0.6866792168692878,-5.511246175947864
1.35,-7.802698890671109,0.6950766500131732,-5.5184961882823504
1.375,-7.797234093980991,0.6989046598659231,-5.520680565195379
1.4,-7.798039596568691,0.6983007709687572,-5.522872946977581
1.425,-7.8034122223095315,0.6983121484358089,-5.524763680188213
1.45,-7.808225104222111,0.7035075802777548,-5.523872697048591
1.475,-7.806286924409491,0.7121645788966375,-5.521692658311179
1.5,-7.793907396792842,0.7189615681798439,-5.523151513961904
1.525,-7.772162078000298,0.7212032108782043,-5.532622815327759
1.55,-7.747758229489817,0.7203216067469085,-5.5495241497049514
1.575,-7.728590208023587,0.7191622211696509,-5.569748959293227
1.6,-7.7181096891383385,0.7191974614425991,-5.5906574434061325
1.625,-7.714465482884216,0.7204567288235871,-5.611855606321004
1.65,-7.713149205443194,0.7226955587993859,-5.633570449796917
1.675,-7.709244693669073,0.7260423964620413,-5.656350345563451
1.7,-7.702081741779794,0.7304524341351594,-5.680570827829816
1.725,-7.696055967670506,0.736381039003026,-5.704330694936548
1.75,-7.693182160049487,0.7429499547514596,-5.724372873114876
1.775,-7.688918308370827,0.7500516547573877,-5.7397630636973815
1.8,-7.674806747764125,0.7611272539171081,-5.75333665762809
1.825,-7.639506512410176,0.7821245194671138,-5.770295564097486
1.85,-7.569829402805385,0.8185259081089797,-5.791708128797754
1.875,-7.454745889376353,0.8714268530303446,-5.811570805153296
1.9,-7.293306408789457,0.9313224177482633,-5.830409409590172
1.925,-7.108625217125929,0.9806564620612281,-5.854094108263039
1.95,-6.955213416425582,0.9973155573820379,-5.872301905224846
1.975,-6.901310863419457,0.9498438799823865,-5.860386536483682
2.0,-6.986007366482292,0.835002083038227,-5.796599826053502
2.025,-7.1885436298543945,0.7215442852614223,-5.671696741183811
2.05,-7.46613217204943,0.684191550556688,-5.471093120972098
2.075,-7.787834270685315,0.7217838650236031,-5.181444831777814
2.1,-8.090081446895864,0.7944343161733655,-4.8476497796335245
2.125,-8.286390033637238,0.8756481287168655,-4.557697826307958
2.15,-8.36236089315743,0.9436362318112756,-4.3460570673452805
2.175,-8.377984288346665,0.9706537506853917,-4.178654567527789
2.2,-8.397805650221676,0.9405445075997845,-4.00115385641238
2.225,-8.447221128726854,0.8690030170619524,-3.782604491066997
2.25,-8.50352036748172,0.7980094736721373,-3.5399876062266222
2.275,-8.53198219617347,0.7612307181609634,-3.3175191955525207
2.3,-8.520224144519652,0.7646720731706073,-3.14192722402139
2.325,-8.485173179287727,0.794838223277228,-2.998781121113491
2.35,-8.448871630980628,0.8342157014565265,-2.85717082007126
2.375,-8.417754046896437,0.8691487481876305,-2.70528820768074
2.4,-8.38951577736046,0.890217876889798,-2.552346522498822
2.425,-8.363945537556715,0.8934808062220405,-2.4123076181597503
2.45,-8.34460558540617,0.881612788214476,-2.2902812728685014
2.475,-8.333029337509299,0.8602728771263802,-2.180860507513673
2.5,-8.322865169712038,0.8335287482664797,-2.077944802302874
2.525,-8.302663805652708,0.80613022618482,-1.9800177644880363
2.55,-8.263317732880918,0.7838673648326128,-1.8891279301039923
2.575,-8.205197686328205,0.7655198379715361,-1.8079387704359615
2.6,-8.136556908188025,0.7427972187478277,-1.7379180299272858
2.625,-8.06665388896444,0.7089353980854287,-1.6785940587205512
2.65,-8.001626218590795,0.6645278584624905,-1.6268951080603193
2.675,-7.942556825567697,0.6147207018185998,-1.5815904151163607
2.7,-7.893731987058125,0.5610994846521367,-1.541631529506953
2.725,-7.867148297087482,0.5001174485746809,-1.5042852123396264
2.75,-7.866429379307397,0.43313526130460434,-1.4720883166739656
2.775,-7.881935767305103,0.36566417216134084,-1.454274784991707
2.8,-7.9030131138597906,0.30083941907930967,-1.457209479876788
2.825,-7.927426353595092,0.24032005901975287,-1.4811237935605936
2.85,-7.95842209990723,0.186553925731287,-1.5284547856474464
2.875,-7.999913121831939,0.13976080817626083,-1.6042037916792793
2.9,-8.054551984704478,0.09835485494050963,-1.7063027339755852
2.925,-8.12154675543683,0.06344558805172805,-1.8280857649112983
2.95,-8.196416503908665,0.03765159681582638,-1.9667850306488264
2.975,-8.271829538049547,0.024915645224761543,-2.1219690661343336
3.0,-8.335761108812212,0.03129269505672179,-2.2929926383824153
3.025,-8.373745064858166,0.0633108432892342,-2.4796592665555726
3.05,-8.378842630740861,0.12086932187315154,-2.6787283229471384
3.075,-8.356763760258257,0.19550107294135902,-2.8834151440152804
3.1,-8.3226101040216,0.27542654452102905,-3.088402156542334
3.125,-8.293732396811345,0.35043066856921296,-3.291070315170402
3.15,-8.284824143283336,0.41459983727953226,-3.486072084921276
3.175,-8.310362351788168,0.4639484061111484,-3.6623773910121753
3.2,-8.378731990367822,0.5000347695761526,-3.8110380149264556
3.225,-8.482696409001154,0.5341498775524369,-3.9328727849831293
3.25,-8.602824508359394,0.5786741634469956,-4.032404541720312
3.275,-8.719259126221377,0.6347556895895795,-4.108907718913987
3.3,-8.820371444642724,0.6939111634984616,-4.1583875074827015
3.325,-8.901988457778044,0.7478908452196739,-4.180535296753792
3.35,-8.959855701598796,0.7939991108162645,-4.181033087672182
3.375,-8.990218334791015,0.8330606110195806,-4.168827560892028
3.4,-8.995766452587565,0.8671709083132877,-4.1482141890070805
3.425,-8.985528786991473,0.899268599770727,-4.117826605793561
3.45,-8.971371104549618,0.9300453318458682,-4.077603904655067
3.475,-8.959919299517422,0.9598810392342528,-4.029644202713911
3.5,-8.946737289557255,0.9897301140268786,-3.9785479060815225
3.525,-8.9270862482946,1.0178998396092291,-3.927791065072401
3.55,-8.9018512400968,1.0435047974733127,-3.8761001761667284
3.575,-8.873781574367367,1.0679267190588941,-3.820821208065784
3.6,-8.845083281638866,1.0906212503704005,-3.762060605628573
3.625,-8.816195517987847,1.1084415411634947,-3.703079503503555
3.65,-8.786936292075296,1.1193423105943385,-3.6464090981668575
3.675,-8.759701134351246,1.1238752451754388,-3.592388962819847
3.7,-8.737609558204197,1.1251591644980152,-3.541618904261373
3.725,-8.7217703868093,1.1263682434912998,-3.493800779343288
3.75,-8.711859743621254,1.1289923112343836,-3.446868699813597
3.775,-8.706489305588432,1.133590438179446,-3.4002453649395803
3.8,-8.702383163724534,1.139144568767282,-3.3565348121006044
3.825,-8.69612994338992,1.1436354564610451,-3.3181052739078782
3.85,-8.68708775621894,1.147178346151427,-3.2843872197765527
3.875,-8.677788194490553,1.1510709025032058,-3.252428354208594
3.9,-8.671686432689288,1.1547240215732644,-3.219207323252101
3.925,-8.671075261378606,1.1560145244835538,-3.183054497852873
3.95,-8.674795666991661,1.1538764526798888,-3.1450221757471217
3.975,-8.677084297927623,1.1500002323383802,-3.109707263381156
4.0,-8.67516075169984,1.1463765968248039,-3.0818074930240353
4.025,-8.672514609713081,1.1420971777713138,-3.060989220598071
4.05,-8.672779028277008,1.134330381364987,-3.042330294647882
4.075,-8.676254360899293,1.1212540781899571,-3.0225712778131286
4.1,-8.68120295842853,1.1055737137093926,-3.004630319513343
4.125,-8.686374859457482,1.0917560487119273,-2.9939030949444456
4.15,-8.690086321189048,1.0811054351020066,-2.992933107290528
4.175,-8.689456352793528,1.0712857199490273,-3.001484758788462
4.2,-8.685399028867137,1.0580505034541605,-3.0152228257184674
4.225,-8.680423480447997,1.0433606679858802,-3.0268363049367846
4.25,-8.679194115126203,1.0290418395064862,-3.031786369792023
4.275,-8.686925952801717,1.0117458459317297,-3.0303090327134248
4.3,-8.69735039083015,0.9944081355213304,-3.029584459617193
4.325,-8.702797818366657,0.9815344721605623,-3.035648281565392
4.35,-8.702628898079944,0.9720991355459003,-3.0467212370802885
4.375,-8.696504834239335,0.9649574619352722,-3.058556997377579
4.4,-8.684662126410972,0.9609989240628137,-3.0681373295774907
4.425,-8.66986110729041,0.9583972193118198,-3.0740069103695102
4.45,-8.65356352605467,0.9533502757128872,-3.076773873646555
4.475,-8.63571455914302,0.9449918489027987,-3.0764133986676256
4.5,-8.617246577080357,0.937384981436091,-3.073662763074701
4.525,-8.601412825037443,0.9356213187737409,-3.0703227588485063
4.55,-8.590226914538315,0.9420693737002551,-3.0680128310853587
4.575,-8.580736771913923,0.9542765735535996,-3.0681148388517188
4.6,-8.56923349017165,0.9677872394904804,-3.0706727250930186
4.625,-8.555542774614993,0.980111708158952,-3.075972325901749
4.65,-8.542090109766232,0.9911899797880639,-3.085549013165384
4.675,-8.53181697050961,1.0021186713594759,-3.0993680559703867
4.7,-8.526579164213798,1.013127910813058,-3.1132198493908336
4.725,-8.524660893122407,1.0245101964252352,-3.123524043059547
4.75,-8.523106673151744,1.0367313257077453,-3.1311069889367156
4.775,-8.519134869876762,1.050366633845501,-3.1388170188311952
4.8,-8.512191117697693,1.0640633605432097,-3.148824473649031
4.825,-8.5041875376787,1.0752203047202027,-3.161927057753906
4.85,-8.495708247436516,1.0838740766697967,-3.177369780758224
4.875,-8.484585029989852,1.092154609276016,-3.1937357256700007
4.9,-8.469639028161724,1.101692870739854,-3.2097249271077524
4.925,-8.453475078158961,1.112076162356968,-3.224475453940345
4.95,-8.440876838899523,1.1204214478403387,-3.2380812373419823
4.975,-8.43346544790055,1.12529507099332,-3.2519626663156296
5.0,-8.426916242633448,1.1290437021145756,-3.268461017132299
5.025,-8.416437434874569,1.1328639389510349,-3.2882873745852352
5.05,-8.403570026691153,1.1350354765605657,-3.3075999017307542
5.075,-8.394185323143796,1.1356270932443862,-3.3215749941017814
5.1,-8.391732789086852,1.135570637234733,-3.3306810403715548
5.125,-8.39278657059753,1.135364801735144,-3.338753257603715
5.15,-8.390890637912317,1.137245620465613,-3.3496539657234203
5.175,-8.383160877114413,1.1419814190853026,-3.3643959424497907
5.2,-8.371530747873955,1.1493336606333286,-3.380333629574431
5.225,-8.359283707887043,1.1589810843283987,-3.394066478034296
5.25,-8.348416969816991,1.168555055857008,-3.4048135268520077
5.275,-8.338477625806581,1.1750424118349643,-3.4138090786920268
5.3,-8.328930970468289,1.1783985128850485,-3.4224134734582607
5.325,-8.321968769509915,1.1810216680532315,-3.4299535421056397
5.35,-8.318110165834712,1.184642995801657,-3.435129081645356
5.375,-8.311912477050079,1.1898871645933238,-3.439279699286923
5.4,-8.300036797363845,1.19362389786826,-3.4433060875814934
5.425,-8.285048270797816,1.194195760110092,-3.4454441119851045
5.45,-8.269937768335266,1.1941065165535383,-3.443511252516533
5.475,-8.254508535233025,1.1938113269426924,-3.437053275959192
5.5,-8.23875757556408,1.1915602394736335,-3.42728256131904
5.525,-8.223997833407592,1.1869453294644425,-3.4167943375777696
5.55,-8.209451217754324,1.1815514303073487,-3.408776816635562
5.575,-8.193661716434837,1.1776640081043261,-3.404129313352694
5.6,-8.177404875461344,1.1759958274482882,-3.4009806703106378
5.625,-8.160784251012325,1.1747770124611328,-3.39817561950038
5.65,-8.14266238942613,1.1731515877329912,-3.396162425827213
5.675,-8.12425598992414,1.171135902307467,-3.392973132222797
5.7,-8.109435095924628,1.168929432827025,-3.3864798135346286
5.725,-8.098239967923885,1.16782553835433,-3.3790283878315437
5.75,-8.087727796970775,1.1687903952404977,-3.3725992942877925
5.775,-8.077392036446732,1.1725217947944473,-3.3645502567581578
5.8,-8.069177432077142,1.176594326682792,-3.352433425087326
5.825,-8.06447228592153,1.1772749815241075,-3.3376032011640198
5.85,-8.06156364896755,1.1725423838460087,-3.3220061603322324
5.875,-8.05875962460909,1.1634684179757084,-3.3062385684703934
5.9,-8.057440077691602,1.1546702596364935,-3.2894860953754246
5.925,-8.058544766215313,1.1497240723006692,-3.2732299305002956
5.95,-8.060544978006908,1.1475205652745812,-3.261418333093138
5.975,-8.059682783152045,1.1478251307146925,-3.2563870002511797
6.0,-8.055384962797353,1.1514550170243578,-3.2559698406707085
6.025,-8.052936531216567,1.1573059892881767,-3.2557596965378734
6.05,-8.056422134817788,1.1626544774564331,-3.254296785528552
6.075,-8.063470444343611,1.166207973291493,-3.25134928046865
6.1,-8.068073381711166,1.169154404132538,-3.24528538181831
6.125,-8.06622857873153,1.1714073319418359,-3.235386886287295
6.15,-8.057383865898425,1.1734745714237456,-3.2255878581033763
6.175,-8.046101108343027,1.1763956686386972,-3.22220988950474
6.2,-8.039940086697978,1.1794476163758605,-3.223469587317828
6.225,-8.03913995753472,1.1826148114010748,-3.222107261536219
6.25,-8.038510990688536,1.1854331211626465,-3.2162156448663515
6.275,-8.037797572349639,1.1859735978043713,-3.206785295167614
6.3,-8.04102040049813,1.183629069050965,-3.195200791147159
6.325,-8.049155023166776,1.179371441966294,-3.182693510855599
6.35,-8.060471354854888,1.1735652572801958,-3.166008729172864
6.375,-8.074702791750566,1.1675592527668897,-3.1377283695623026
6.4,-8.091479038681634,1.1689577668046456,-3.088722968416605
6.425,-8.108089669922288,1.1898108052705765,-3.0025300017097076
6.45,-8.12602317597708,1.2339424348005446,-2.8598077764093355
6.475,-8.148599063516443,1.2902099214093108,-2.6616701955334183
6.5,-8.163413049995503,1.3543174224784533,-2.434873958175961
6.525,-8.162054155534236,1.4315749915513887,-2.202211882435813
6.55,-8.155817865076035,1.5121896355709121,-1.9736895553834446
6.575,-8.140529083429739,1.5739714822231314,-1.7555873976844252
6.6,-8.089363393098038,1.6062334606817736,-1.549861016937452
6.625,-7.987548302118241,1.6063287255531984,-1.3540064671539727
6.65,-7.8302011348217215,1.5720379722884208,-1.1686519192308358
6.675,-7.602387480789636,1.504526886311694,-0.9998981286277585
6.7,-7.276767214118879,1.4092571397517621,-0.8520726905051167
6.725,-6.820689486220593,1.2925877911485781,-0.7141317690993273
6.75,-6.211505233696573,1.1488596803310176,-0.5655779284701171
6.775,-5.438026737552208,0.9543686236089368,-0.3930117313598133
6.8,-4.500042886650544,0.6645479197719233,-0.18432475032478626
6.825,-3.3877216612585532,0.2422008650189673,0.07621741577703957
6.85,-2.023507052503595,-0.2842063496866045,0.3749728331424367
6.875,-0.21985619608592055,-0.788258737412116,0.6255175979606761
6.9,2.1222212306832264,-1.1241291370336033,0.7745981927815868
6.925,4.703957505843282,-1.333734776349822,1.003361995705408
6.95,7.089077000087177,-1.6604853496090666,1.5925619984550203
6.975,9.263016668949053,-2.171805133039947,2.471515269346315
7.0,11.79744062069694,-2.593976680142151,3.092161298575626
7.025,15.290454275094872,-2.6378162103100147,2.8785168794087443
7.05,19.57407741430899,-2.3420251934040217,1.8065394115704747
7.075,23.800006778813945,-1.9866480490733514,0.3833884127830775
7.1,27.294440770457726,-1.7481754678125958,-0.8918268800101016
7.125,30.11359332853754,-1.552316893974941,-1.9178173041329933
7.15,32.79682462622303,-1.2548555490806153,-2.879420277929328
7.175,35.72228510100183,-0.8387234254181657,-3.9372275135903143
7.2,38.80264419658492,-0.38713841630113277,-5.0775220376615255
7.225,41.73419832062811,0.04097217013246232,-6.200856894734172
7.25,44.29472913441268,0.44528559628971937,-7.265769352113682
7.275,46.43299870445438,0.8404392632383831,-8.295429458475944
7.3,48.220644610713755,1.2061243225780143,-9.293437097633532
7.325,49.76177372671164,1.5005076224571154,-10.223870596962497
7.35,51.138964441538604,1.7186975170815675,-11.06752777772815
7.375,52.38306893864651,1.894100553892696,-11.833003950786157
7.4,53.46073394648058,2.065770061712837,-12.513328452831693
7.425,54.32837759804509,2.256922335577768,-13.090412954110565
7.45,54.98058222023321,2.4582381542794898,-13.567920024475116
7.475,55.458833446872575,2.6497980219778112,-13.960756639121287
7.5,55.8359367186375,2.844196349400602,-14.267003005134693
7.525,56.197008691787865,3.05743314642289,-14.495095776587133
7.55,56.58462088939082,3.2475633250186307,-14.70295462111667
7.575,56.97566913493782,3.3721405697993014,-14.9469427226436
7.6,57.312511235767104,3.4336385245889116,-15.2243736162457
7.625,57.548738478780756,3.4339961277106297,-15.49493070944603
7.65,57.679453450999794,3.3771764850421815,-15.727423700064326
7.675,57.720046230389215,3.290016794604302,-15.92038392037481
7.7,57.67208791262192,3.209807540779393,-16.08960515042744
7.725,57.51291198102006,3.1609086619758657,-16.247624887705143
7.75,57.22943274201388,3.1401901129148353,-16.395544140437224
7.775,56.81754879272403,3.1329735787296453,-16.51458261818987
7.8,56.248048723284015,3.139175385837045,-16.563285392690506
7.825,55.472427514385025,3.167233792641236,-16.50674917489088
