Time [s],Flexion(-)/extension(+),Abduction(+)/adduction(-),Internal(-)/external(+) rotation
0.0,9.203573142149814,-2.309075680143681,3.912040053732574
0.025,9.192212035360576,-2.3095381446264174,3.9116366135512917
0.05,9.176175521385984,-2.309100674833805,3.9065827447955557
0.075,9.158383301530844,-2.3058597013883473,3.8944321904513735
0.1,9.137627637458415,-2.3011059496652626,3.877621877129175
0.125,9.114617597567008,-2.2991324053971267,3.858184957755897
0.15,9.091347869772248,-2.3027724783684462,3.8404104819937777
0.175,9.067488045975079,-2.3107846958973663,3.834037699639673
0.2,9.044100985941967,-2.318892254690302,3.8378587001560045
0.225,9.022688353427611,-2.322995813138407,3.8418570732206905
0.25,9.003231098984568,-2.322042629629684,3.8364305514835633
0.275,8.986631224533834,-2.3195437946682826,3.821689085935298
0.3,8.974104100020192,-2.316569067139578,3.810279898159723
0.325,8.96560957435041,-2.3114949875977877,3.807409932750847
0.35,8.957527736347624,-2.306923110549707,3.8048537023678604
0.375,8.948650023255388,-2.3006516342156744,3.79408059729504
0.4,8.939325216282851,-2.2891754349066056,3.777094335714597
0.425,8.929111134465012,-2.276651570538906,3.7595645621248246
0.45,8.917655281618211,-2.265858970720481,3.7413824439340426
0.475,8.905220361755845,-2.254986484563352,3.718257453453341
0.5,8.891410897236488,-2.2449620901104272,3.6964575027192903
0.525,8.875778512939695,-2.2379224230324133,3.688904967506828
0.55,8.858451249797401,-2.232862804163396,3.692682817816222
0.575,8.840682149404705,-2.2288817796346523,3.6898259453189595
0.6,8.823080445571986,-2.2249033703511105,3.67346910221935
0.625,8.807941197976678,-2.2195476658367617,3.654489620398981
0.65,8.800518371561395,-2.211826292872254,3.6432491737334702
0.675,8.79972557446204,-2.2019497207348255,3.6366129691834885
0.7,8.798593338507638,-2.189439050796308,3.626062966831706
0.725,8.79359758123294,-2.1762459088124233,3.6126530901721874
0.75,8.785426802535156,-2.1656783310500427,3.602854178574693
0.775,8.774923574458366,-2.157783389757617,3.598424464570284
0.8,8.761678017645384,-2.15119752598988,3.5936185476259137
0.825,8.743482196283047,-2.1421192104331914,3.5852270550696015
0.85,8.725228902064543,-2.1276263852581936,3.575741159500999
0.875,8.715479683913255,-2.1099830475364714,3.568857301097608
0.9,8.711991722790266,-2.0938002102724034,3.560308559252028
0.925,8.70547589188497,-2.0811324010418852,3.5465604159048563
0.95,8.694218117186644,-2.0717666167219972,3.5346122833570006
0.975,8.680464797687463,-2.0650634907827192,3.533561067993055
1.0,8.667973936836647,-2.0620928676360504,3.53856637972709
1.025,8.656217860946098,-2.0638784624825672,3.5413608173289752
1.05,8.643279723622479,-2.066419253831552,3.540412604180095
1.075,8.628769281528168,-2.064148577536369,3.5425357316509136
1.1,8.613051476835151,-2.0579406917817495,3.551220043105414
1.125,8.597361235183815,-2.051753913266155,3.5646559171932624
1.15,8.582587061720714,-2.043471708244155,3.5780284410920227
1.175,8.567500695826956,-2.031547757846535,3.588942303417438
1.2,8.551198040117008,-2.022250504839065,3.599298954669796
1.225,8.536053714699564,-2.0196042688509994,3.60947066088814
1.25,8.5217310711883,-2.021137869821492,3.6188985599068992
1.275,8.501567919193267,-2.0232420720056776,3.629865131763421
1.3,8.47159983453788,-2.0243920098145654,3.647313846273685
1.325,8.436958814546285,-2.0271580917694765,3.6654248259717
1.35,8.404843881991663,-2.0317430999206114,3.673924663131155
1.375,8.378295880628672,-2.033417449393055,3.670782334413315
1.4,8.357728107273825,-2.0298764349053844,3.666136044696428
1.425,8.34307985941229,-2.0246730781622633,3.6736769484687635
1.45,8.330754725586743,-2.0238577265515922,3.7005001787755907
1.475,8.314284396947395,-2.027616323254015,3.737188444111637
1.5,8.2861634841359,-2.0291586294603876,3.766284871758441
1.525,8.245589344769327,-2.0265851166380466,3.7783725934748333
1.55,8.200560870430403,-2.0225850572390764,3.779908939247443
1.575,8.162670380971363,-2.019267298049475,3.7777828624564886
1.6,8.136901550239573,-2.0162063058485318,3.7771410557105716
1.625,8.119597558415387,-2.01318313694883,3.7829200791546844
1.65,8.104594305145746,-2.010005558455151,3.7959846866973366
1.675,8.088260596954857,-2.0075533809365607,3.8143157422972287
1.7,8.071565844590063,-2.007427838372349,3.8338458244078475
1.725,8.058513998388493,-2.010366695858338,3.8491802161354736
1.75,8.04810433401388,-2.0148455685283553,3.8567156425613556
1.775,8.033613435052532,-2.0198060992336253,3.8579057432679695
1.8,8.007737335195092,-2.0266168751993057,3.862200030231451
1.825,7.959653738024738,-2.0409892094804913,3.8792278781664415
1.85,7.873988887157738,-2.069424564970147,3.909566256854594
1.875,7.736794132337827,-2.1129184029801817,3.938120766006797
1.9,7.537673825448646,-2.1608850137069937,3.9465880834223013
1.925,7.2788644631503,-2.188846108265033,3.9139465248409344
1.95,6.987934454034722,-2.154389782396056,3.7869595859764376
1.975,6.714917141653221,-1.9999192630028366,3.525311196286789
2.0,6.519654838288949,-1.7259361180522348,3.219351378577125
2.025,6.446032575254819,-1.4349580556526498,3.054114931976413
2.05,6.4898841529438815,-1.2263803043693755,3.0957048978608643
2.075,6.616432078466869,-1.120868263635711,3.236072034530219
2.1,6.757114088349026,-1.0942274754519268,3.370239633216955
2.125,6.824109429579758,-1.1220040232040311,3.4952833646627104
2.15,6.8054137771906555,-1.169965525029131,3.6278313564997378
2.175,6.764281386764465,-1.197692783940344,3.709911863549493
2.2,6.766765988814199,-1.181344684446615,3.631231930721744
2.225,6.829260090630842,-1.1301467824947484,3.352258537025579
2.25,6.913624645373565,-1.0739382177956498,2.993974364341649
2.275,6.975037000852495,-1.0285213040400227,2.740467671961095
2.3,6.991807223953012,-0.9960457352952172,2.664658516531513
2.325,6.967592830734779,-0.9778529519231536,2.697348836235665
2.35,6.918459160844989,-0.9699028755655471,2.7359069347901044
2.375,6.858339442304904,-0.9622342643826388,2.7365655489849687
2.4,6.798938516816905,-0.9446505493027847,2.720020725754954
2.425,6.748681800302933,-0.9126608741087806,2.715465898597831
2.45,6.712660042170114,-0.872627647163182,2.7096432211958987
2.475,6.694694717601289,-0.8342699001106487,2.6596462826251273
2.5,6.6904504903547,-0.7993104495159663,2.549248923985659
2.525,6.683994011188903,-0.7620083013617984,2.4109432773444697
2.55,6.659755825602617,-0.7161765035348444,2.2965285439134493
2.575,6.612863717082994,-0.6564753714759,2.2336358875725515
2.6,6.5496254526210445,-0.5839724251751143,2.2154440764650736
2.625,6.486927561554572,-0.5112494993927649,2.218162653150729
2.65,6.446257601201784,-0.45360425396535403,2.211880688981959
2.675,6.439784398667414,-0.41663155139671554,2.1670293446740803
2.7,6.4672633927543055,-0.39206597029387313,2.0659275360163667
2.725,6.521886951118816,-0.36558648917288844,1.916686277776621
2.75,6.592199556362967,-0.32950543387977826,1.7574350156932839
2.775,6.6701405519617225,-0.2825854819898603,1.636963646973956
2.8,6.752723037585889,-0.2244453024616702,1.589381232369044
2.825,6.84252764730811,-0.1610095086574451,1.6218868702444682
2.85,6.946082505354211,-0.10700830323184493,1.714761679048684
2.875,7.067854671086298,-0.07319914471377796,1.8330921611449729
2.9,7.209946311392118,-0.06163306381334895,1.935398484470347
2.925,7.371910608443998,-0.0732038776588014,1.9951971200221243
2.95,7.546352248594451,-0.10290625208732912,2.018280742511825
2.975,7.721130287310263,-0.14269122560767591,2.0307737981744536
3.0,7.8820582793186285,-0.1931151951275745,2.058277887107945
3.025,8.015838555580961,-0.26383611335131657,2.11254946018638
3.05,8.118359164136612,-0.3579947715476854,2.188214484851191
3.075,8.194569178574069,-0.46696889084760024,2.2792468317746915
3.1,8.256260243286668,-0.5794587612281002,2.3817319439672815
3.125,8.32351609465245,-0.6881114187031315,2.482039352780643
3.15,8.41433783535682,-0.7861840417080345,2.563517318158962
3.175,8.539778301812085,-0.8616955647336199,2.6277078606176896
3.2,8.698914016652276,-0.9076514568298384,2.699316372670051
3.225,8.87643353622048,-0.9334001597997662,2.81074079391736
3.25,9.048238131812958,-0.9549096306781452,2.9836902459369
3.275,9.195378627761034,-0.9826819652140041,3.211798805133451
3.3,9.314083819016616,-1.0221590419560125,3.4568983363620798
3.325,9.408900273286692,-1.0756065240158563,3.6688196107524838
3.35,9.480903352018961,-1.1396863173820533,3.807588586739957
3.375,9.531027852210869,-1.2061405588406153,3.8671670772943476
3.4,9.566653766019433,-1.2669208646178154,3.8763747032302187
3.425,9.59737620911715,-1.321619571867627,3.8735748319717946
3.45,9.629549544586654,-1.371513501891934,3.8768260867428217
3.475,9.658932062068809,-1.4165110973764974,3.885758255159847
3.5,9.67211455965837,-1.4556986839264143,3.902105858250938
3.525,9.66562667791997,-1.4868490066158724,3.9254433728651383
3.55,9.647976659566615,-1.5133482408952004,3.9473277107535445
3.575,9.626057398966973,-1.5427700945420197,3.954916859935685
3.6,9.602663912252615,-1.5762225482416778,3.9397754512790417
3.625,9.577760757361453,-1.606248243982648,3.9073674185965364
3.65,9.550411680642576,-1.6262814630964681,3.8743772920703847
3.675,9.522622337317559,-1.6353562556006138,3.8495285901516634
3.7,9.497414689075569,-1.6394639969150113,3.829550122630848
3.725,9.476004625660408,-1.643974742328212,3.808681596372417
3.75,9.457978870154438,-1.649187539729974,3.7851784030801734
3.775,9.441212669732346,-1.6529310127647638,3.7615619408234404
3.8,9.425404044684809,-1.653942330603256,3.7392545543727356
3.825,9.411074470698313,-1.654194682968563,3.716701335291153
3.85,9.398341225803058,-1.6562720510295772,3.695562093736975
3.875,9.386207168888452,-1.658938146144961,3.6774016816667023
3.9,9.373066883196255,-1.659058251967124,3.65995105768776
3.925,9.360928334973645,-1.6554751608459115,3.6419313963647433
3.95,9.352671678886212,-1.649082248665453,3.6233621974117853
3.975,9.34348497787158,-1.6410740792924123,3.6059376784800174
4.0,9.329459718738187,-1.632007635198481,3.5961516590410953
4.025,9.314759170291195,-1.6226240409966137,3.5943597346095744
4.05,9.305010685368782,-1.6129526918780883,3.590724017305997
4.075,9.300666412804421,-1.601290384600675,3.5762833080975316
4.1,9.298497984099834,-1.5885303443324572,3.552370972616115
4.125,9.297520978796467,-1.5766095018938597,3.5284871489747918
4.15,9.295706193145033,-1.5650056448908916,3.5139154852298295
4.175,9.291003544493597,-1.5525302257018736,3.5108200792319297
4.2,9.284948342615769,-1.537490192767756,3.5130589353354664
4.225,9.27932978059755,-1.522998549477391,3.5107181871326225
4.25,9.280105854123523,-1.5111649742201843,3.495097052249266
4.275,9.29313945766804,-1.4977820589778947,3.465900495293272
4.3,9.30970088532445,-1.483663359401903,3.4331672559881445
4.325,9.321601464598178,-1.4709554476619289,3.404965014582135
4.35,9.328752551005286,-1.4577237668079628,3.384085857388927
4.375,9.330060311600043,-1.445477071418822,3.3744135267116024
4.4,9.325756967040798,-1.4389359406512645,3.3735836685883003
4.425,9.320174668624947,-1.4372503089262922,3.3728676935648036
4.45,9.313271205285515,-1.4331639852527758,3.365775006438651
4.475,9.302676935218214,-1.4233079629027396,3.349770905714805
4.5,9.289994992565282,-1.4127096996523363,3.3279325965885937
4.525,9.280160650516592,-1.4066782401526086,3.3098146797374493
4.55,9.275256781615235,-1.4082296835650303,3.304306334548658
4.575,9.270338414352848,-1.4157199310180144,3.3112151226808515
4.6,9.260099671026559,-1.4242706398969591,3.3225773244622885
4.625,9.24459100891179,-1.4322116645844443,3.333329627446665
4.65,9.228221854564554,-1.4401792993797617,3.3464801260132666
4.675,9.21507271680807,-1.4488446865265772,3.364111026174674
4.7,9.207115737007108,-1.457078643115769,3.3816227180495595
4.725,9.204608406732564,-1.465158801906842,3.397415685997237
4.75,9.207510670214715,-1.475527980504896,3.413718664535752
4.775,9.212770560645652,-1.4904711997773497,3.43080252598627
4.8,9.217026989934636,-1.5075726318018694,3.4492620425890967
4.825,9.21895785235078,-1.5217301347062904,3.468528395148033
4.85,9.218496339720893,-1.53215955393123,3.4848502834949655
4.875,9.214741398304692,-1.5405197573135205,3.4978076058270395
4.9,9.206534962740434,-1.547157700374412,3.5098164577045985
4.925,9.19439970656228,-1.5530317552882043,3.52140542402288
4.95,9.182761451995113,-1.5581790862240963,3.532496054002981
4.975,9.174246251064192,-1.5621253948462035,3.544621731940247
5.0,9.165757601591658,-1.5666787960062338,3.5598855181366935
5.025,9.152536223014675,-1.5709046501143478,3.5776968017904527
5.05,9.136159940092977,-1.5735446668774007,3.5917311221401134
5.075,9.124852577819524,-1.5764310728823532,3.595926385884775
5.1,9.123313251785918,-1.5794706518591164,3.590616825765352
5.125,9.126794467020629,-1.5805383781320002,3.5817734394546923
5.15,9.126789296835227,-1.5805602565388401,3.577535339635104
5.175,9.120391148338197,-1.5826805897397132,3.583692400668304
5.2,9.112107659583646,-1.5906430839125234,3.597397256096932
5.225,9.106420133550637,-1.6065323402325622,3.6087019637481554
5.25,9.102418757453547,-1.624587317301321,3.6124681558675995
5.275,9.097275155627774,-1.6368097869233982,3.612126964305507
5.3,9.09218979697669,-1.6425411882578744,3.6119596677978216
5.325,9.09204492884067,-1.6474125821742351,3.6120722720668867
5.35,9.09592219686326,-1.6543619693071407,3.6123655171181066
5.375,9.096159170770761,-1.661880674324745,3.6137818528477195
5.4,9.090289798012572,-1.664685787871777,3.617786948245985
5.425,9.081535418578314,-1.6624014428789513,3.622726497554547
5.45,9.071906011723721,-1.6615616870110563,3.6214908835893715
5.475,9.061471820075942,-1.6644070099565034,3.6112944662377724
5.5,9.05114511669623,-1.667269418933959,3.5961913659987013
5.525,9.041792461682363,-1.6668500533424826,3.5803423810245687
5.55,9.031443884205913,-1.6623562136405323,3.5663373961295983
5.575,9.017801791631095,-1.6574117261175119,3.5558868136956727
5.6,9.002445270865994,-1.654839222888757,3.549484924530296
5.625,8.98533932772582,-1.6525351771999324,3.546549207294482
5.65,8.96600316607242,-1.6485471504277318,3.54543147928607
5.675,8.949243014018277,-1.644810343427756,3.5409752745356102
5.7,8.940394710474244,-1.6427162193368325,3.529689758693841
5.725,8.93600055903499,-1.641088749171258,3.515650681817838
5.75,8.930023449427626,-1.6400361364604326,3.5022526442315103
5.775,8.921478643216789,-1.6422386011891812,3.487059847024657
5.8,8.913394379531686,-1.646012099886709,3.4686447500751245
5.825,8.907948602002335,-1.6452968878715852,3.452211972289809
5.85,8.903505855271348,-1.637175938659358,3.4419356492851336
5.875,8.900335869359889,-1.6254556557935071,3.435191568283764
5.9,8.902475962459418,-1.616581143295464,3.4254077863289183
5.925,8.910188138964052,-1.6131986693931268,3.4106381428748422
5.95,8.918594882269431,-1.6116567768328778,3.396885033380323
5.975,8.922080107800332,-1.6122806313972027,3.3887616733618913
6.0,8.920515988257598,-1.6168731982318996,3.3816800959022615
6.025,8.920125850683622,-1.6240583671762012,3.3724629142444096
6.05,8.925299196879086,-1.6298212366446636,3.3657160335573617
6.075,8.933426837520154,-1.6314310673354873,3.364513921905465
6.1,8.938056152258502,-1.630411294918484,3.3658088805635598
6.125,8.937051172849406,-1.6293021719510152,3.364720997819935
6.15,8.931852669070572,-1.6314120014821791,3.3603375238188677
6.175,8.926038306589454,-1.6382093479255306,3.3559358477866668
6.2,8.925356080505038,-1.646011110585503,3.3495863437483866
6.225,8.928023196102053,-1.6521945594327831,3.3378646572912456
6.25,8.926649098339178,-1.6556370378278515,3.323638985291291
6.275,8.921695694198515,-1.654662798520519,3.311527159475489
6.3,8.919936156253137,-1.6495880025431298,3.3051986506977595
6.325,8.924038638821473,-1.6445201797970457,3.3024467885670834
6.35,8.932700863354109,-1.6415349573673543,3.2941319696145497
6.375,8.944982920219093,-1.6399072056415325,3.2699443552662553
6.4,8.959213677023303,-1.6453470043192588,3.219931466133193
6.425,8.972426873490065,-1.671723164583543,3.1289909850854305
6.45,8.984465658891382,-1.7247141258454022,2.9807362672042452
6.475,8.996784916297909,-1.7947408993341742,2.777034784033843
6.5,8.99631666185545,-1.8795725792635156,2.5435627109911647
6.525,8.975359526851827,-1.9846973950470495,2.2965124721606465
6.55,8.945554560058829,-2.100172487700296,2.031113915527639
6.575,8.902151334334583,-2.203377588884344,1.7409809109936605
6.6,8.820465716529792,-2.2817925559840626,1.4300897405023416
6.625,8.690258028754373,-2.3327245479222625,1.1050785072745972
6.65,8.503837259917479,-2.3532672757822506,0.7698960169238502
6.675,8.232628029582417,-2.3400285377993257,0.43330124427689864
6.7,7.832888373527528,-2.291645800402044,0.10871600381822526
6.725,7.2557041847044355,-2.2082699231399134,-0.2023712497570229
6.75,6.462807328621835,-2.0810820194773925,-0.5165294391345058
6.775,5.424639060047071,-1.8809822193444665,-0.8585770562608334
6.8,4.120140933864592,-1.5532022403625394,-1.2672846715288546
6.825,2.5169427396036737,-1.043513764957638,-1.8044426592605667
6.85,0.5124123855358532,-0.3552798685299439,-2.5185107571566547
6.875,-2.1064776087264643,0.40960572498101155,-3.394499404538386
6.9,-5.449448887898871,1.113535085377936,-4.465534816271587
6.925,-9.193580708613387,1.7625469396265578,-5.975737833399509
6.95,-12.843109271251963,2.4898838850124654,-8.162793342269897
6.975,-16.23239858421924,3.2171070488307847,-10.83112954318114
7.0,-19.701038141152186,3.707561406243745,-13.168168695947218
7.025,-23.81593589061626,3.877577001353114,-14.183742687653105
7.05,-28.622078215448138,3.871587970734068,-13.733348055593096
7.075,-33.37452145817264,3.9210653034545326,-12.689620434994133
7.1,-37.363917499589,4.1173428643418,-11.89769973333289
7.125,-40.68550951542304,4.353104401169349,-11.41864294616849
7.15,-43.953969126318434,4.521381639916486,-10.85364327703667
7.175,-47.50782185414668,4.661310881120535,-10.004852688192008
7.2,-51.17664544311995,4.850959475287336,-9.023657963226146
7.225,-54.62207577933935,5.063778888836707,-8.09377087866384
7.25,-57.613081456765165,5.2138622145217,-7.192990074354115
7.275,-60.106491212695744,5.284862751648019,-6.212425414849845
7.3,-62.196437671247686,5.350679636474971,-5.16026515210536
7.325,-63.98365873485098,5.469356021072792,-4.151117463328889
7.35,-65.52559863310653,5.619913292895328,-3.2624859042080097
7.375,-66.8545237908058,5.75539140391819,-2.4848288794789584
7.4,-67.96043541943457,5.837811853248624,-1.810326959696552
7.425,-68.82530234563647,5.8524573546197205,-1.2628315834313844
7.45,-69.45672560693107,5.821270874256895,-0.8436881282329616
7.475,-69.89843522286375,5.771142472762779,-0.5279135154855193
7.5,-70.23048803863522,5.697658060839711,-0.3052174297454559
7.525,-70.54437161157739,5.6042441146239,-0.17027883041872405
7.55,-70.87609177369008,5.551911296336133,-0.0791273577099903
7.575,-71.19496729486357,5.583029783288349,0.021303797952030887
7.6,-71.4459713346133,5.672636173040305,0.14113344725182086
7.625,-71.58742710090768,5.793953143843182,0.26077248207311104
7.65,-71.61656600456804,5.929731892795143,0.3684486096304705
7.675,-71.5525683407972,6.049642558317661,0.4671108944912368
7.7,-71.40029874317852,6.120884418763395,0.5615872956544015
7.725,-71.13817218062665,6.132228426643885,0.6496096141271209
7.75,-70.75782710621384,6.114597440239528,0.7230635819219076
7.775,-70.27519846612094,6.112301536510141,0.7715604593038657
7.8,-69.71395679046014,6.130424712544753,0.7747454299942657
7.825,-69.09038044535836,6.145327402999656,0.7104067928154244
7.85,-68.40586024091726,6.164088062058989,0.5614487155539843
7.875,-67.61877134061297,6.228590255936579,0.2788591031566603
7.9,-66.59915395113046,6.351591239408505,-0.23157894117370903
7.925,-65.17391177342789,6.488251091030197,-1.036116746370927
