Time [s],Flexion(-)/extension(+),Abduction(+)/adduction(-),Internal(-)/external(+) rotation
0.0,5.487397285324701,-1.1680887967160167,5.648214639908741
0.025,5.476490042477526,-1.1744706392304933,5.675243697837662
0.05,5.458326090589782,-1.182318843121467,5.717682384042344
0.075,5.438344843423741,-1.1906885795415745,5.765249794046832
0.1,5.415114811397114,-1.2020277022956438,5.817865394121976
0.125,5.395269758837392,-1.206432623042882,5.861032125286498
0.15,5.377877003260013,-1.206117627498072,5.892030321112224
0.175,5.361751102123078,-1.2100305144494528,5.908161730084648
0.2,5.3509307935632995,-1.2207750692633201,5.916584014366905
0.225,5.343665490853227,-1.2343285293017878,5.9355072264443836
0.25,5.340694692535664,-1.2442900662974963,5.963587964278533
0.275,5.3399200388772465,-1.251449938747501,5.981216333740033
0.3,5.336005050365302,-1.259524549633211,5.975003351547642
0.325,5.326297948777896,-1.2650926139751844,5.956109238301232
0.35,5.311518826216861,-1.2670987119603667,5.938499375506941
0.375,5.295200249089506,-1.2683478115323017,5.917206587524782
0.4,5.280635317044008,-1.2694383169516963,5.880363886215346
0.425,5.2650788891388824,-1.2710170623395785,5.818046597145744
0.45,5.242473342698444,-1.2727646040871148,5.737586649473235
0.475,5.214038520007227,-1.272575099137759,5.663379407709071
0.5,5.185820908720282,-1.2687100128236124,5.606970285382821
0.525,5.1650939773636635,-1.260709117578722,5.569835594451555
0.55,5.147894876176523,-1.2481261822769993,5.548155114934419
0.575,5.118584217876201,-1.2271788369878438,5.5333749530038725
0.6,5.077847850968068,-1.1965799976863536,5.520449402959257
0.625,5.0446970283426875,-1.1612158594590092,5.512876917075469
0.65,5.03188047404174,-1.1288904423375241,5.518758626580557
0.675,5.03782669617436,-1.1016119553666244,5.533035985164591
0.7,5.047014450673681,-1.07721189718816,5.538260126950614
0.725,5.049878681342978,-1.0529414818625529,5.5225571958415
0.75,5.04901896507614,-1.0327914620713912,5.487559969476218
0.775,5.04567195966937,-1.01963110319522,5.4480248833634395
0.8,5.0350771617746,-1.01137987108473,5.41729615741232
0.825,5.0162336229953794,-1.007297784038205,5.398581088866673
0.85,4.993423196441073,-1.007148150933186,5.389118908382686
0.875,4.968959518172387,-1.007652228871478,5.384911263642999
0.9,4.948882981492536,-1.0021226534650691,5.397697110740692
0.925,4.939526808968548,-0.9874438389573422,5.433168191590402
0.95,4.93491661290125,-0.9722226251398857,5.455722042953249
0.975,4.932529754847157,-0.9606863031168703,5.462432567233717
1.0,4.9348528971107815,-0.9542175768247749,5.4694511474261525
1.025,4.942826773766898,-0.9545570561936482,5.477767488381889
1.05,4.953856091077064,-0.9583033767146025,5.477311965459581
1.075,4.961255610780916,-0.9586752984551705,5.46843209291573
1.1,4.9625025506525065,-0.9591171786541103,5.455384803732155
1.125,4.962106250306972,-0.9645187374826953,5.438708032672233
1.15,4.958697414476682,-0.9703441092177478,5.406874959815592
1.175,4.93906234827641,-0.970034114055004,5.336306023588256
1.2,4.887322599840068,-0.9649759036396707,5.209128836841708
1.225,4.792982576973546,-0.9722067062128402,5.01252731802756
1.25,4.6320451691325255,-1.0652009874942676,4.745147980103431
1.275,4.310134701696764,-1.3670659699792824,4.470361095325259
1.3,3.7101258401211132,-1.8933894934492812,4.316861285874428
1.325,2.8699843771762232,-2.441961783722662,4.236232694576256
1.35,1.8965979991351187,-2.8560800739146557,4.058954191590255
1.375,0.8917583073278535,-3.1494466967105774,3.648138430132689
1.4,-0.057456124048305954,-3.3420388768278677,3.038244334355502
1.425,-0.9528833379906846,-3.4413037579277272,2.420538086425701
1.45,-1.9068863867143975,-3.466609573868272,1.9081958617798322
1.475,-3.0466754306331363,-3.3923636601910103,1.4519873833882533
1.5,-4.388372532421345,-3.1426905638975158,0.9458301008296626
1.525,-5.842079073383372,-2.669829889015912,0.35914678771451225
1.55,-7.317254135293963,-2.0136031679472035,-0.2594653088794056
1.575,-8.837704309531434,-1.2813693106277615,-0.8654546940194229
1.6,-10.53548242155087,-0.5873446583796871,-1.4923758939923222
1.625,-12.493477731589032,0.015127267678594769,-2.21833445407349
1.65,-14.694120384343643,0.5246068268642702,-3.0331936931612136
1.675,-17.041427282090577,0.9538237492607148,-3.9109211980997136
1.7,-19.39563509857109,1.3252295907065819,-4.976835974026304
1.725,-21.6556747616074,1.6603577129713127,-6.379967225939075
1.75,-23.96968884794988,1.9670120345313398,-7.929317106346705
1.775,-26.670046950548027,2.293829278564487,-9.220335597064805
1.8,-29.79609962528597,2.7389261802087916,-9.994044498563508
1.825,-33.02619931743013,3.3295097028658485,-10.268889647943906
1.85,-36.059901503170146,3.9592023309683078,-10.195963047016402
1.875,-38.82925620520532,4.450823152404309,-9.853549417547748
1.9,-41.4119546809839,4.690216182916088,-9.229874705896618
1.925,-43.86013971975849,4.734037486728676,-8.39972638808904
1.95,-46.13111146805739,4.744185193109542,-7.51357271288837
1.975,-48.16943595793731,4.855705829638151,-6.678156595856461
2.0,-49.940416470224896,5.112916268637953,-5.952172211324403
2.025,-51.4415286078407,5.471104275059778,-5.390130570138128
2.05,-52.71120572183018,5.872204237104163,-5.012378215788556
2.075,-53.78423792972785,6.310242380266227,-4.7928012760836065
2.1,-54.66603667540816,6.789823602083075,-4.6997257936678265
2.125,-55.36541335217494,7.253151942960237,-4.6668381144619335
2.15,-55.95089411137255,7.618067947810378,-4.578734034485572
2.175,-56.50806974548179,7.84630104480803,-4.342314801871138
2.2,-57.03478890948179,7.942783068003261,-3.9623458373790195
2.225,-57.447943318962764,7.945937147981901,-3.5508263620148353
2.25,-57.67338886276837,7.889734406237347,-3.2557620510518728
2.275,-57.73057209710224,7.802851107521177,-3.1575548308178143
2.3,-57.72814551478612,7.724850780212208,-3.2305624329308777
2.325,-57.74434763656787,7.700184192589086,-3.3905386941305102
2.35,-57.776104098396445,7.74564989898712,-3.56013459208475
2.375,-57.80495611616379,7.822285999532535,-3.692249168139555
2.4,-57.840356080066684,7.88011140425501,-3.753639982919137
2.425,-57.89641056424694,7.894559163505805,-3.7393751613064468
2.45,-57.97480795263818,7.8735888420936115,-3.673618765449996
2.475,-58.07273904791531,7.8457489846108635,-3.587338919387422
2.5,-58.16732743660101,7.835782832243223,-3.498922474384076
2.525,-58.22459367086001,7.844145691226998,-3.4261208837698067
2.55,-58.22881579102058,7.856275051301815,-3.393757189689969
2.575,-58.191145480517164,7.8675343833879365,-3.420455595668885
2.6,-58.13648501371299,7.883312569053663,-3.4852852368401743
2.625,-58.08131939966475,7.9009415442230235,-3.542507503504748
2.65,-58.028407695368436,7.900520044439012,-3.5734608002122967
2.675,-57.966554802261456,7.86315255034792,-3.585768698658407
2.7,-57.88063265891403,7.796156877011821,-3.587846977457713
2.725,-57.75525234470437,7.715301311983945,-3.5819948828685013
2.75,-57.571462092005596,7.620610893446621,-3.5679699907875335
2.775,-57.30544579189555,7.499178214916565,-3.5532887455452493
2.8,-56.93027508002376,7.34494676808094,-3.564312691614289
2.825,-56.41906246244001,7.1449808267115165,-3.6259325716547175
2.85,-55.73361257419735,6.870647813040393,-3.7519475807109592
2.875,-54.846489307849986,6.510084285177186,-3.9557393487940917
2.9,-53.76755964648444,6.069377285930143,-4.248708695481016
2.925,-52.54071617333258,5.553132613563404,-4.601018057391849
2.95,-51.21656399251118,4.999702797649672,-4.945619307061193
2.975,-49.77555865456496,4.47139685353698,-5.245177230532151
3.0,-48.10636472170882,3.983930236751642,-5.512806225085147
3.025,-46.13040973902969,3.5172741500929656,-5.762579904866188
3.05,-43.894281907009685,3.040052646124827,-5.985674564584413
3.075,-41.50129679754382,2.477455836354276,-6.156982353244755
3.1,-39.019910395752845,1.7506196780413767,-6.272896975661727
3.125,-36.49558285345825,0.8618699795001662,-6.362726398898295
3.15,-33.98169911060233,-0.10277416097854468,-6.455198022501904
3.175,-31.51207072323293,-1.0384675697815726,-6.518408042984363
3.2,-29.06243133670546,-1.8658874000279706,-6.493826238173398
3.225,-26.52668258599601,-2.5200953253158436,-6.405688396000025
3.25,-23.78746188384943,-2.950175935198256,-6.382154718324719
3.275,-20.806713763230857,-3.1182122684849443,-6.496222033365661
3.3,-17.68280862935101,-3.047398356541922,-6.696146490740386
3.325,-14.583137064711432,-2.8336136820081874,-6.895186574348482
3.35,-11.66798925100806,-2.587765535877977,-6.956413912470881
3.375,-9.188360551100915,-2.4691369544433055,-6.6283821873480315
3.4,-7.371254724542463,-2.5418337681374084,-5.797287416950144
3.425,-6.219026360532204,-2.7334708880000806,-4.544489904186485
3.45,-5.429963649022629,-2.948129014013918,-3.102952572224427
3.475,-4.554555149457312,-3.077780071958887,-1.8396777538489566
3.5,-3.3590919294583474,-2.993256088338502,-1.1252950479609325
3.525,-1.9304496521251397,-2.626770512359453,-1.125178066408412
3.55,-0.5507617013905723,-2.078560952134505,-1.7230998940880482
3.575,0.4496608616235879,-1.4881476973843706,-2.584304991750477
3.6,0.8885917958630687,-0.891535599225475,-3.3452085285923974
3.625,0.7708426846547963,-0.24016730648188034,-3.797542730185993
3.65,0.10948798400221152,0.5121336071305508,-3.844527655274493
3.675,-0.9780240557481932,1.3878459348431562,-3.462846915134357
3.7,-2.019005441941316,2.3363844065353563,-2.85815508915777
3.725,-2.5568086977089846,3.1804928422620713,-2.3194383936889293
3.75,-2.4861643927491004,3.653886144388905,-1.8702517780152146
3.775,-2.084950769990494,3.731384171076375,-1.3893394508468146
3.8,-1.7769925657492467,3.8084099816824772,-0.8581904875004621
3.825,-1.6911833095337951,4.203435963265806,-0.4575054393172595
3.85,-1.9851161431301494,4.796863187771886,-0.27456694098175294
3.875,-2.693153794778924,5.394991164409253,-0.3501869434346965
3.9,-3.5736996949369506,5.799192512560593,-0.7687900961151455
3.925,-4.391259420886262,5.9148814829590695,-1.3995101461652355
3.95,-4.880839184478983,5.894966113514999,-1.9385279271671678
3.975,-4.992394061559122,5.993355624559273,-2.0064559697292346
4.0,-5.138222382202845,6.116562016951118,-1.436590295395669
4.025,-5.679384817540154,6.117963022545685,-0.29731565608388566
4.05,-6.594527057239187,6.064787612714906,1.2686133779464304
4.075,-7.806652036951834,5.887650597503409,2.916560397598774
4.1,-9.031667075839263,5.634676285370626,3.949005958144706
4.125,-9.89921099894051,5.61575312533982,3.8608982276887347
4.15,-10.09911677440473,5.881915525651655,2.918449746677501
4.175,-9.845781294646068,6.314009117362985,2.1136484826849897
4.2,-9.702774009048076,6.705633323396452,2.2022471779664934
4.225,-9.797924386117492,6.832644132776022,3.0824080124343443
4.25,-9.77916193079187,6.670580081385146,3.9855034123241118
4.275,-9.459406206938404,6.340388446859046,4.291812225503404
4.3,-8.922352445328713,5.841218794004259,3.9851717084719342
4.325,-8.445172978365807,5.075258726941205,3.5474230758584024
4.35,-8.19233097705169,4.098670241254549,3.44861132972106
4.375,-7.980426214890316,3.1086627818097874,3.827129010133306
4.4,-7.801202303365975,2.146906164387473,4.618042332765286
4.425,-7.764056829791498,1.289114447566288,5.587406531613911
4.45,-7.95441714762289,0.6950602210305853,6.411120233569669
4.475,-8.355377499075399,0.4091174160201892,6.814474642658925
4.5,-8.87086411185539,0.3631278426682918,6.622702066018922
4.525,-9.491548685619858,0.5088100936127067,5.806135134233697
4.55,-10.272697454845805,0.7984673325636955,4.563991652102788
4.575,-11.162034880978586,1.1794909308496213,3.2573473363217884
4.6,-12.017354194191453,1.6344965661840956,2.1762374389022896
4.625,-12.766339637814234,2.1318196001675753,1.4755957313136558
4.65,-13.38331768070211,2.580097920643365,1.2004597063754554
4.675,-13.84295814226876,2.8957729052241334,1.246268725648696
4.7,-14.086232836768358,3.050398358123796,1.2947959734647636
4.725,-13.946303448934994,3.0717277817815374,0.9472724803265916
4.75,-13.223638512952364,3.029195691305867,0.021091970269154627
4.775,-11.871471204749696,2.987707373231206,-1.231713252636309
4.8,-10.094243110756262,2.9798409989638275,-2.2249667543231357
4.825,-8.293768085907876,2.917337049988294,-2.5003278640397446
4.85,-6.845467078909583,2.622946373442244,-2.028689856316213
4.875,-5.873705286172307,2.030816099702847,-1.0598520718787334
4.9,-5.30801555086886,1.309839343254383,0.33544026164977203
4.925,-4.930058911349078,0.7107725857021199,2.2626455240206154
4.95,-4.530226661082836,0.41410173954664226,4.401304781948775
4.975,-4.058482570998983,0.2865137209563888,5.9931759536136155
5.0,-3.5839506984711496,-0.0542882921908015,6.585114893083511
5.025,-3.2095526450298375,-0.8076002045937873,6.495623638684203
5.05,-3.042616015163262,-1.806749628649491,6.358594769823867
5.075,-2.9316166251835,-2.7531208272632113,6.368621907416579
5.1,-2.6456447211230816,-3.413925179432803,6.380562506964558
5.125,-2.124154511346617,-3.789496806593989,6.328659317681882
5.15,-1.3798610215314655,-4.098433562071489,6.3226068895223975
5.175,-0.5181421721178208,-4.594597148488039,6.524351020653774
5.2,0.2841524358807727,-5.331181113931463,7.048863761212977
5.225,0.9422525181450834,-6.162395503434378,7.762157893000727
5.25,1.468337884355744,-6.902517919544698,8.196775324031702
5.275,1.8415395823185947,-7.415460076514381,7.998475867609303
5.3,2.0219153686584357,-7.71960434599337,7.3137770832367
5.325,1.996490726395971,-7.918867812739198,6.666810721095941
5.35,1.7409706230563506,-8.09808638435035,6.5923199859518355
5.375,1.2844456839204872,-8.240580024601693,7.242462348798998
5.4,0.9312632158931543,-8.210807836677986,8.171964806663816
5.425,0.9529249869103448,-7.927697780550797,8.904242831789778
5.45,1.3571795709776564,-7.406314106947857,9.42743712209325
5.475,1.9925716956662451,-6.747410495519039,9.959140346661846
5.5,2.734917728936285,-6.0810156282612,10.468411632292849
5.525,3.4614036353037143,-5.482424594142308,10.738802527768522
5.55,4.068744900571098,-4.9508354492899205,10.657123767533335
5.575,4.509459811882059,-4.441868973455397,10.296670496724044
5.6,4.721442527240621,-3.8478932215079125,9.932997497425125
5.625,4.56111885162954,-3.1690601247647634,9.90139007770659
5.65,4.162193417323142,-2.4539916546514453,9.934932041932388
5.675,3.800406370561794,-1.5991405738258697,9.700528728883087
5.7,3.5477090647585228,-0.5813364136931429,9.381476762769882
5.725,3.3130855312770415,0.398264753306033,9.30999677286775
5.75,3.0210223191178307,1.238749587696306,9.700359898020857
5.775,2.649259655684176,2.021418057154782,10.38663024283654
5.8,2.0866915872509404,2.780861428900205,10.867731182532397
5.825,1.2625463469590068,3.541442932533326,10.66481235712245
5.85,0.1805502546520096,4.328615164486597,9.530722786348338
5.875,-1.2694999199024362,5.125492601216262,7.627480231386959
5.9,-3.2254638652299743,5.884514488994693,5.469907049820434
5.925,-5.610583655292849,6.6027426813927965,3.5178462516775135
5.95,-8.025833709191955,7.32800441891972,1.879381860700807
5.975,-10.005242656952506,7.98540745741097,0.6580529308613517
6.0,-11.446681886313216,8.410349541897713,0.11070071345864618
6.025,-12.364808572381849,8.494481440400815,0.22120194936868098
6.05,-12.656071773611544,8.311817387765009,0.6528991390177208
6.075,-12.316081785200645,8.110811854057305,1.0464121877312709
6.1,-11.417514632867869,8.123284690874682,1.103363898243742
6.125,-10.087739036951634,8.397028399879005,0.6596880301682566
6.15,-8.470353318718068,8.87969155198921,-0.29932754215201407
6.175,-6.658142516606611,9.425560554320832,-1.5749063515531143
6.2,-4.750806763460024,9.894937434960836,-2.9293602049631478
6.225,-3.0219404923865456,10.183780085950584,-4.418490774319967
6.25,-1.7664804228138724,10.053356661922257,-6.182803897176571
6.275,-0.9348409946720071,9.334654092188261,-8.010060608646693
6.3,-0.3328126840505509,8.442630313570664,-9.578636784449793
6.325,0.019003429473651714,7.987746435633016,-10.151167178966855
6.35,-0.1029439562437442,7.982439477692271,-8.757029516775827
6.375,-0.9832538110684161,8.14462335719308,-5.089791873017796
6.4,-2.9593103585844074,8.326658487958099,-0.09430683480224343
6.425,-5.1922509632370355,8.228063112433672,4.455025847746349
6.45,-6.539223849692131,7.6234589226711,7.045925167426624
6.475,-6.743432845332403,6.74666194031798,7.306884806695295
6.5,-6.383618859454103,6.04243730556748,5.932290758979133
6.525,-6.017403328888264,5.646389569377119,4.048709970123147
6.55,-5.594043246457441,5.5893845048475725,2.457267252190774
6.575,-5.096590680458197,5.841955154747471,1.2960170401706774
6.6,-4.773881388780729,6.162286741021253,0.2694767757166123
6.625,-4.67166829424655,6.299705225467314,-0.8600688400939177
6.65,-4.5676225047975585,6.2301538307751,-1.92103046602147
6.675,-4.4090963657616635,6.146995998045146,-2.593164857722949
6.7,-4.346821210518951,6.228992665063179,-2.767700244994542
6.725,-4.572353461764407,6.539770537477023,-2.530993417693542
6.75,-5.14108501546875,7.02425888257126,-1.9970518746655848
6.775,-5.936552471107193,7.579081284462767,-1.2753562719850968
6.8,-6.700953686282233,8.11327061272523,-0.48808837062475924
6.825,-7.15125180891206,8.51047908434201,0.29267395015393105
6.85,-7.262914395042981,8.657821475113373,1.1699597956118066
6.875,-7.2305892506693565,8.588760867216767,2.30906656037545
6.9,-7.161902543688929,8.495534637291806,3.6226378969485014
6.925,-6.959876345555572,8.522527179157535,4.69857500917428
6.95,-6.489263302848404,8.638502761250585,5.171235134693468
6.975,-5.664369720012926,8.73924386287725,4.9306627336106805
7.0,-4.4840744390587135,8.747118025714654,4.058223606601551
7.025,-3.083246509417272,8.638302206905417,2.7855544041779825
7.05,-1.6373265740254481,8.473352805564245,1.4136272339160874
7.075,-0.2409795008318754,8.33180053878593,0.22782059846521072
7.1,1.043930354239066,8.216685354173558,-0.5037849338168908
7.125,2.1168253750332733,8.05826609122675,-0.6164644161084819
7.15,2.864991007619494,7.823227409923609,-0.15090085985099716
7.175,3.126374791110879,7.5712711101817805,0.8029446637064438
7.2,2.8143085615572665,7.332691982505733,2.224088654695084
7.225,2.1677630888107906,7.0660587811936875,3.8805438967055363
7.25,1.5563711738623338,6.764155200582741,5.327862662108191
7.275,0.9967014163429051,6.467484994241735,6.265574737719503
7.3,0.43473229577364286,6.2766362471053645,6.528741360802199
7.325,-0.05309631247301633,6.260087004731303,6.072492040111349
7.35,-0.49087972870955665,6.427868532198305,5.082972156605423
7.375,-0.9191931631102861,6.732855041961115,3.8413529023335715
7.4,-1.337187672253666,7.120165476462639,2.6426458011088427
7.425,-1.7661260187404972,7.579906122645305,1.7388974180576469
7.45,-2.285129467918862,8.105071088245037,1.212195789697991
7.475,-2.966558296381899,8.68513545745933,0.9363153715428073
7.5,-3.771697165783928,9.310625494118415,0.694721615953128
7.525,-4.6054214462800696,9.93176516340245,0.31993169716223757
7.55,-5.480039751650465,10.458068689984257,-0.3388829753220434
7.575,-6.477122833867594,10.783009482563047,-1.465441155433735
7.6,-7.504347099082193,10.786984442685682,-3.033082656827132
7.625,-8.331888360728248,10.36735384544217,-4.52571935589884
7.65,-8.736011369172365,9.546708261324035,-5.30749246408633
7.675,-8.590750533921069,8.458514705546374,-5.28154145751419
7.7,-7.950679787590346,7.183628819836064,-4.892271936234811
7.725,-6.946908011129634,5.721250085532017,-4.512438386890357
7.75,-5.8054299585594515,4.163818840282335,-4.097920778863863
7.775,-4.845722570697166,2.7391894420032354,-3.5101353163364655
7.8,-4.1985294948300345,1.7470292924658013,-2.8416336436702094
7.825,-3.8947302489125475,1.3269034028231854,-2.2499871795187976
7.85,-3.656912357048616,1.2872199752738585,-1.7064276972796761
7.875,-3.2203918267216163,1.3698280187851914,-0.9047158340571786
7.9,-2.6206429517315364,1.4485977090190387,0.2561550386398218
