Time [s],Flexion(+)/extension(-)
0.0,4.625919949760295
0.025,4.639504173978369
0.05,4.658787321411416
0.075,4.676833249470966
0.1,4.692621959861597
0.125,4.708386433624574
0.15,4.724628431949445
0.175,4.737640669959223
0.2,4.744142531970097
0.225,4.7504414153306005
0.25,4.760022671054563
0.275,4.772562590857864
0.3,4.786535206616939
0.325,4.8019196546858645
0.35,4.818245622008161
0.375,4.835920015790012
0.4,4.855947394579097
0.425,4.8777633017791855
0.45,4.899885557305087
0.475,4.918741511854223
0.5,4.93007319625353
0.525,4.932519754794349
0.55,4.9296764787413725
0.575,4.928790457885914
0.6,4.932510708743825
0.625,4.93513321333589
0.65,4.929338897128896
0.675,4.9176541995042165
0.7,4.9097176454120275
0.725,4.91111673471774
0.75,4.91946500517442
0.775,4.930517764034654
0.8,4.940440957793848
0.825,4.94775755295465
0.85,4.951152366781891
0.875,4.9518001875689315
0.9,4.953416589028764
0.925,4.958904045076002
0.95,4.970691934023998
0.975,4.985380194109844
1.0,4.996177865063865
1.025,5.001994689454059
1.05,5.007286344587937
1.075,5.014044803743191
1.1,5.0173546881112205
1.125,5.013217217794412
1.15,5.007208451246661
1.175,5.016031500891963
1.2,5.059810399690415
1.225,5.138729859376589
1.25,5.216080981240039
1.275,5.268189074264971
1.3,5.336308527530965
1.325,5.472631247610229
1.35,5.646325197993172
1.375,5.770657801804778
1.4,5.793931971874885
1.425,5.740523225744481
1.45,5.682928002844482
1.475,5.686051904270844
1.5,5.76400144311858
1.525,5.883664512985915
1.55,6.005655071895633
1.575,6.120905698087956
1.6,6.237312148480334
1.625,6.33820281306914
1.65,6.414837516043479
1.675,6.485429808553328
1.7,6.566280035532938
1.725,6.689783168852429
1.75,6.954776855651935
1.775,7.441074748507201
1.8,8.072643321807773
1.825,8.708012688644164
1.85,9.308899604505841
1.875,9.887232132403023
1.9,10.457472788201098
1.925,11.061130622732815
1.95,11.720922205145637
1.975,12.423210987301486
2.0,13.150746862363464
2.025,13.875967562544734
2.05,14.550758486788244
2.075,15.146872872185547
2.1,15.678930240670898
2.125,16.152333554103272
2.15,16.564017382626254
2.175,16.91778444814514
2.2,17.21021689454827
2.225,17.432557543799994
2.25,17.575356988396493
2.275,17.634201171247348
2.3,17.626138475420397
2.325,17.58373700912339
2.35,17.53166074040529
2.375,17.48193478854908
2.4,17.44762173489616
2.425,17.438047938385512
2.45,17.45448869169488
2.475,17.492273926517665
2.5,17.53568465304167
2.525,17.567949578119745
2.55,17.582318876055666
2.575,17.583014407846726
2.6,17.579484085452286
2.625,17.58425959456489
2.65,17.61108690905204
2.675,17.661057002941906
2.7,17.724180165957712
2.725,17.788673539552168
2.75,17.843170119418918
2.775,17.878312155203766
2.8,17.894329942874485
2.825,17.905878535550688
2.85,17.923403174168747
2.875,17.94991869298371
2.9,17.995231326975905
2.925,18.081249027298988
2.95,18.217014541581683
2.975,18.379391293595482
3.0,18.51261420947744
3.025,18.567246431220525
3.05,18.5272700292639
3.075,18.388619746863146
3.1,18.144131754878053
3.125,17.79162984822463
3.15,17.33705076004878
3.175,16.767981457607597
3.2,16.05847821921159
3.225,15.189014306045427
3.25,14.190583057812022
3.275,13.175720665895918
3.3,12.30129695901344
3.325,11.70156311096767
3.35,11.426253113318468
3.375,11.376070007825353
3.4,11.38031374888345
3.425,11.296521185011173
3.45,11.038296676176518
3.475,10.619878641765034
3.5,10.192906852041714
3.525,9.976904851872234
3.55,10.09556438667552
3.575,10.561566525599213
3.6,11.331097059729593
3.625,12.261344028032909
3.65,13.182791439832327
3.675,14.062931073748576
3.7,14.90486133652816
3.725,15.67908879664463
3.75,16.337156268830174
3.775,16.824871704243726
3.8,17.208283790138466
3.825,17.656549801779583
3.85,18.31658010253708
3.875,19.186425698783562
3.9,20.09639934902918
3.925,20.80741341322892
3.95,21.094518315948566
3.975,20.870202864412242
4.0,20.196107267484045
4.025,19.332204648778223
4.05,18.74432931100631
4.075,18.816406623455556
4.1,19.4935841978475
4.125,19.915243284486404
4.15,19.155200661668403
4.175,17.40840954264908
4.2,15.47653802908271
4.225,13.777685522517015
4.25,12.083045017916332
4.275,10.18052041035815
4.3,8.148790633490751
4.325,6.115642116142595
4.35,4.119905600488056
4.375,2.2167422306888835
4.4,0.5439822168171412
4.425,-0.7077435560873048
4.45,-1.383749906655332
4.475,-1.4789373639045644
4.5,-1.0973689543166925
4.525,-0.2716116899855053
4.55,1.0537111724151749
4.575,2.8054736776951206
4.6,4.773627657718949
4.625,6.80560468183168
4.65,8.818786604355125
4.675,10.717327849234163
4.7,12.355158284748642
4.725,13.54960499241089
4.75,14.083903448703472
4.775,13.847195183631413
4.8,12.923348756221268
4.825,11.62419559854084
4.85,10.40756643388464
4.875,9.604003959286196
4.9,9.31725335296863
4.925,9.38418623571762
4.95,9.595591072532157
4.975,9.752953031926321
5.0,9.749188264017052
5.025,9.652987393464883
5.05,9.702791502443116
5.075,9.932289925272402
5.1,10.178645355047454
5.125,10.316136115298344
5.15,10.167587029704498
5.175,9.620097273610808
5.2,8.761448067713122
5.225,7.74310480839605
5.25,6.708083619091057
5.275,5.814109507679614
5.3,5.151181632712608
5.325,4.7028362421523715
5.35,4.409944855311435
5.375,4.227463599810521
5.4,4.108200375808869
5.425,4.019915170048072
5.45,3.999452531168926
5.475,4.074606796579574
5.5,4.236427593325973
5.525,4.504246322578783
5.55,4.921561843077214
5.575,5.504479595765782
5.6,6.255203847184735
5.625,7.19251922090752
5.65,8.319706052813576
5.675,9.67451772980756
5.7,11.220367822421197
5.725,12.822864608829088
5.75,14.416109676123812
5.775,16.09733252518683
5.8,18.07533762626022
5.825,20.488127580589186
5.85,23.378705050254386
5.875,26.78123804130042
5.9,30.65304559310487
5.925,34.685098596778936
5.95,38.278462367451674
5.975,40.917651007510734
6.0,42.25056825998999
6.025,42.06592685645787
6.05,40.33686139454608
6.075,37.0559075315702
6.1,32.22876194864992
6.125,26.101204432348332
6.15,19.21750819271404
6.175,12.295781962794328
6.2,6.146410640901901
6.225,1.6985514278610636
6.25,-0.39528734770412305
6.275,-0.4011660078313152
6.3,0.4436791568305675
6.325,1.1686067939721188
6.35,2.0357359956357657
6.375,3.680175138192451
6.4,6.3976714791827485
6.425,9.311492205969728
6.45,11.323830941904554
6.475,12.188414528981314
6.5,12.487937626109645
6.525,12.80730079851441
6.55,13.134900776271559
6.575,13.45077924408909
6.6,13.898387303944935
6.625,14.47125360040074
6.65,14.990291636458423
6.675,15.472646645084994
6.7,16.12050938893815
6.725,17.14110013109387
6.75,18.576795844877033
6.775,20.261497418520374
6.8,21.861095137052175
6.825,23.02084393091327
6.85,23.62762923765557
6.875,23.791771610305076
6.9,23.657833574764805
6.925,23.234387794995076
6.95,22.44020533319287
6.975,21.225450319326526
7.0,19.628509984809938
7.025,17.785603841904845
7.05,15.844325554481568
7.075,13.857220804217269
7.1,11.81312796502843
7.125,9.767518867350024
7.15,7.896078597146216
7.175,6.36473451598568
7.2,5.104846713254027
7.225,3.8844809807381093
7.25,2.604443315214057
7.275,1.414464028327839
7.3,0.5250259834978529
7.325,-0.0034479012095136206
7.35,-0.2063569448133354
7.375,-0.14521063052551392
7.4,0.10382052233801593
7.425,0.5271748187907039
7.45,1.2193888337262662
7.475,2.3505178335048047
7.5,4.072178998274513
7.525,6.497498947536066
7.55,9.787653439111649
7.575,13.96497613985747
7.6,18.690825894167272
7.625,23.361896428865645
7.65,27.360865926358336
7.675,30.2302633972199
7.7,31.69005783616732
7.725,31.510821709896003
7.75,30.026078513183474
7.775,28.23054951070173
7.8,26.74111412416189
7.825,25.470460098417306
7.85,24.162334043351077
7.875,22.647274213884387
7.9,20.99051741502322
7.925,19.365167954940816
7.95,17.911135240283176
7.975,16.656850429554773
8.0,15.556071383079123
8.025,14.570235313486837
8.05,13.694255333488522
8.075,12.909889903624917
8.1,12.099759938438048
8.125,11.118386376097565
8.15,9.973231660810997
8.175,8.76490993651051
8.2,7.534000215281737
8.225,6.299593099166573
8.25,5.124244204295577
8.275,4.095284351571577
8.3,3.246310417269712
8.325,2.559630424172296
8.35,2.053870848741783
8.375,1.7678177540817537
8.4,1.6714690295017525
8.425,1.6512444629049432
8.45,1.594804891837491
8.475,1.465258484998482
8.5,1.2958144595874428
8.525,1.1411541331642434
8.55,1.0352803498494068
8.575,0.9748560941078902
8.6,0.9339641770443203
8.625,0.8955718420184463
8.65,0.8713639674758225
8.675,0.8863050980590456
8.7,0.940514220214467
8.725,1.0093909263393461
8.75,1.0754970198281484
8.775,1.1395373738904142
8.8,1.2129997359999622
8.825,1.2937837173318172
8.85,1.3727182446402872
8.875,1.449233459978791
8.9,1.522282878918748
8.925,1.5857661181375524
8.95,1.6432644265037868
8.975,1.7032846147658727
9.0,1.76455781339932
9.025,1.825847204736613
9.05,1.8942744558735172
9.075,1.9777301144145958
9.1,2.0751684360910434
9.125,2.180798258254879
9.15,2.287705726687845
9.175,2.381685788787443
9.2,2.4469525408106954
9.225,2.4829862913220686
9.25,2.51295124049614
9.275,2.567110909660445
9.3,2.6544994816420857
9.325,2.758748390997679
9.35,2.862156542223989
9.375,2.964361759229067
9.4,3.0696525476499086
9.425,3.1649713645393662
9.45,3.237093293935628
9.475,3.28645967955359
9.5,3.3279133872440823
9.525,3.3751103611052744
9.55,3.4328087561466263
9.575,3.5015397828347363
9.6,3.5835768655150013
9.625,3.6808420084610263
9.65,3.795781201271517
9.675,3.929825487104438
9.7,4.077017348131305
9.725,4.224899357437369
9.75,4.363570794686688
9.775,4.490580530353485
9.8,4.607695488163092
9.825,4.7150914681417735
9.85,4.808456172179936
9.875,4.886046300155958
9.9,4.9610918107760416
9.925,5.0489194254835805
9.95,5.136003608044263
