Time [s],Anterior(+)/posterior(-) tilt,Lateral tilt left(-)/right(+),Rotation left(+)/right(-)
0.0,-28.36733102899418,-1.110637925630397,-0.7159747047647251
0.025,-28.345446093032304,-1.1168957020911665,-0.6841252209772118
0.05,-28.306585269963506,-1.1263063753694762,-0.6391400059559424
0.075,-28.257708459798746,-1.1392305009775638,-0.5945242566471166
0.1,-28.201744706203485,-1.1578306258240447,-0.556158070037773
0.125,-28.1521111478757,-1.1750642189850038,-0.5375002413578618
0.15,-28.11662379652835,-1.184720977571808,-0.5379930313815704
0.175,-28.090365670005585,-1.187259125731583,-0.5460663073318627
0.2,-28.057402990433083,-1.1881287812089538,-0.5535856594832569
0.225,-28.011972216757123,-1.1865477878302924,-0.5616409501385127
0.25,-27.959376365901214,-1.179497418994771,-0.5738137597494865
0.275,-27.91041524165244,-1.169464133639549,-0.5882724232942392
0.3,-27.868837854631686,-1.1606528515738865,-0.6050328006562088
0.325,-27.835001883798434,-1.1555612302146876,-0.6287500662783968
0.35,-27.81132274102741,-1.151432767008649,-0.6640593062391791
0.375,-27.791766848647544,-1.1482447348928289,-0.7085571865143155
0.4,-27.7662913953586,-1.152889409579856,-0.7454898992623793
0.425,-27.728579651335174,-1.1698734664569466,-0.7550385090954372
0.45,-27.68000652938,-1.2029120747080633,-0.7356278030447229
0.475,-27.639977845577558,-1.2611596625311328,-0.693435577643601
0.5,-27.631030999557805,-1.3430663987902487,-0.6444392424721361
0.525,-27.63422678694342,-1.4351658900244308,-0.6062604232512679
0.55,-27.61692842551326,-1.5202682552794315,-0.5935094091854927
0.575,-27.582835036097975,-1.585328951098582,-0.6325938274252102
0.6,-27.550811399220052,-1.6367719252889854,-0.7152436726765204
0.625,-27.511643818292402,-1.6922558696276087,-0.8036475520665624
0.65,-27.4555382560996,-1.757175134374413,-0.8888180591566126
0.675,-27.394393891875946,-1.8119004027345764,-0.987412199216043
0.7,-27.34959750886895,-1.8400796859514614,-1.0936183034927178
0.725,-27.32596925244771,-1.846495614086674,-1.185096844336795
0.75,-27.312683580506008,-1.8363724248649071,-1.2617613669248338
0.775,-27.299726042062307,-1.8079568104608499,-1.3328577929195544
0.8,-27.293014351522974,-1.7687403217581308,-1.4003614938478635
0.825,-27.292473815438616,-1.7301116229419509,-1.4724962805281454
0.85,-27.29014668239554,-1.6970422965949206,-1.5578503370540993
0.875,-27.28859605969551,-1.6700074520959307,-1.656818547457867
0.9,-27.297705106533186,-1.6395575133255846,-1.7808720789434132
0.925,-27.32759970881255,-1.5834224567769268,-1.962230885311597
0.95,-27.3729830977164,-1.495614532450982,-2.1975117281735
0.975,-27.402615058935908,-1.4145381598106614,-2.3880853514427907
1.0,-27.415617476598104,-1.339585306139952,-2.533668837820276
1.025,-27.42158275840234,-1.2595495863517243,-2.657362901658571
1.05,-27.42533921590046,-1.1743370748401272,-2.7630811185489974
1.075,-27.4278851872014,-1.086192152512494,-2.857453477870902
1.1,-27.42968711898877,-0.9987228612337775,-2.946222769272752
1.125,-27.429208049479048,-0.9153350007469491,-3.0337311013742343
1.15,-27.426028312758437,-0.836822144075551,-3.1226422053476073
1.175,-27.421729294692277,-0.75944284431784,-3.210337267582715
1.2,-27.420574954595853,-0.6774316354029418,-3.2997308226310493
1.225,-27.43576810493194,-0.5931602793098508,-3.3960416544707797
1.25,-27.509194301477972,-0.5361638479104259,-3.490689426483322
1.275,-27.700688516836994,-0.562603890660068,-3.5505082160931107
1.3,-28.03978080991408,-0.694103251384107,-3.5682349342928923
1.325,-28.45383224138342,-0.8660729027492288,-3.603854025848253
1.35,-28.784981109751232,-1.020938484631317,-3.6867407704220203
1.375,-28.855544719491526,-1.1612037412020213,-3.7905497638404286
1.4,-28.561395316203605,-1.2979605516068198,-3.8856970693365405
1.425,-27.90038451377864,-1.411224698200316,-3.9708055626464893
1.45,-26.911300231450756,-1.456256989423407,-4.042253080911984
1.475,-25.58341587974658,-1.3881399629871767,-4.082303814033343
1.5,-23.882828797847775,-1.1789430739172677,-4.106498111343429
1.525,-21.77843517613426,-0.8215439305575377,-4.151924063261457
1.55,-19.24887439890465,-0.3311711368958122,-4.244022716427601
1.575,-16.279550497687065,0.24256472922418046,-4.406369319156477
1.6,-12.846946204052538,0.8277895031881869,-4.651754391726028
1.625,-8.931383588554132,1.374629569953462,-4.980800922823656
1.65,-4.623225829345611,1.8840295375519698,-5.402212473121117
1.675,-0.17439368407124745,2.360777226744978,-5.94731386542367
1.7,4.178564618563192,2.765759611172272,-6.600792051224287
1.725,8.31730527910428,3.0479817383597467,-7.256043069898968
1.75,12.085948553008903,3.2244125379769355,-7.766200752689619
1.775,15.434539746477078,3.383238496606451,-8.0115600633886
1.8,18.39086666643359,3.6099152788877817,-7.984387834254416
1.825,20.939944309877156,3.9164856750467134,-7.75231389815247
1.85,23.11602248511538,4.216632349329548,-7.39316356384223
1.875,25.00637305708501,4.405356551911914,-6.976037138332451
1.9,26.658910815427273,4.439585495999949,-6.538001277177104
1.925,28.090539863662958,4.3471262061166716,-6.086210818969322
1.95,29.320686827808714,4.210901244537381,-5.635772519987264
1.975,30.341718905983946,4.0935932778652635,-5.226838399493774
2.0,31.138675115211566,3.9995658196158446,-4.909694954392517
2.025,31.758726860542957,3.8936137783307223,-4.717485129269312
2.05,32.2612110342716,3.747964309983127,-4.619315808260825
2.075,32.694687653138864,3.5885466479010084,-4.546240819543582
2.1,33.086787429279745,3.462585660374246,-4.493064673099824
2.125,33.42980795912058,3.390397084105708,-4.46432987885903
2.15,33.6665141554793,3.354914884995454,-4.423142690849887
2.175,33.784365641319724,3.3175392874044043,-4.336995400591043
2.2,33.83975469877271,3.251327426087289,-4.212536068481983
2.225,33.91200727434789,3.158951370769305,-4.1048041585270845
2.25,34.05572993867872,3.068558413946509,-4.076826939877805
2.275,34.25717276124508,3.011963974330109,-4.133835921900999
2.3,34.46287243434279,2.997949672878421,-4.2277150179297225
2.325,34.620443605611456,3.0260243667165914,-4.328481706225264
2.35,34.712235632864406,3.096584453198082,-4.43303982689158
2.375,34.75335037711125,3.1978889971009425,-4.535372565586706
2.4,34.77959575649937,3.3149663847172763,-4.6180799442624965
2.425,34.82408353156286,3.4317344041497235,-4.667826760080334
2.45,34.896894639432745,3.535049374625074,-4.688417652733093
2.475,34.981900982708076,3.6141451446697332,-4.6947558359728125
2.5,35.058014154255886,3.6624163609626623,-4.694241941991008
2.525,35.116819662013235,3.6816413955148595,-4.690234288772464
2.55,35.16017904615279,3.6747614207618065,-4.6953034594555225
2.575,35.19553383971932,3.647888775272284,-4.715646916174417
2.6,35.223683180519075,3.6105382907561947,-4.7453085203353025
2.625,35.22531134219689,3.561358832683271,-4.775072671669938
2.65,35.19128234690504,3.4887372643009815,-4.800540513233091
2.675,35.122971713851484,3.3902865219221137,-4.820185724357734
2.7,35.009839716015215,3.281857136690416,-4.830351046820781
2.725,34.8491721697615,3.178185724182486,-4.830469586392714
2.75,34.65320997334506,3.0805168537121133,-4.823143193782133
2.775,34.43551136317546,2.977846292292209,-4.809372381357387
2.8,34.189262367370524,2.8658945420378124,-4.792739749026905
2.825,33.89058472133132,2.7530203375458324,-4.787961634003333
2.85,33.538315393478754,2.652698976418136,-4.794003020056209
2.875,33.11225430572122,2.5727218209722857,-4.772236524015664
2.9,32.57045295120655,2.512476253376312,-4.699233505584305
2.925,31.856838592354805,2.453748920089967,-4.571919975306768
2.95,30.89370331957745,2.3815794447078993,-4.380504925082314
2.975,29.647923073725963,2.295762920244961,-4.1268516857149224
3.0,28.179842282316752,2.1842654316406747,-3.8249729275471247
3.025,26.554480484872066,2.01736243155805,-3.4711196725126983
3.05,24.7859772555911,1.7695013399040702,-3.040145455103977
3.075,22.841818440513666,1.4299500260936027,-2.5282734461717533
3.1,20.68900079176719,1.0036923146512435,-1.9529658434462815
3.125,18.326259903012755,0.5107432487244709,-1.346463477019223
3.15,15.781542983088821,-0.01809377446636927,-0.7313724395487454
3.175,13.08866988001932,-0.5608762606555754,-0.08684549384067056
3.2,10.32044966115681,-1.0977921833831572,0.6307745807665004
3.225,7.573070212833547,-1.5730941504152112,1.4305779277913713
3.25,4.934419189234224,-1.893411951908548,2.248724920860569
3.275,2.4828811035702887,-1.9959855117429495,3.0140398301616003
3.3,0.25095589373237,-1.8884358628713243,3.7068835953133594
3.325,-1.757814602590756,-1.5977526189064606,4.339320051749389
3.35,-3.5801402632155535,-1.146575459051296,4.988456740345657
3.375,-5.3571256522169755,-0.5984878651983035,5.795896816765044
3.4,-7.235795826837837,-0.010790832115438014,6.84454540924665
3.425,-9.24840021482232,0.6005472479108229,8.11441795878676
3.45,-11.280191826223456,1.2085878025995702,9.519263651639099
3.475,-13.121886861598663,1.7624187303920937,10.969402775844046
3.5,-14.604543677566932,2.2275232328023145,12.423760950218531
3.525,-15.701134158212916,2.5987671389001488,13.90308307949933
3.55,-16.513308242631332,2.8787475087687615,15.482420233550625
3.575,-17.203554649895285,3.0956518772863557,17.231316963644417
3.6,-17.858554377094492,3.303741988894349,19.166990009092807
3.625,-18.37483348322262,3.527296129957358,21.2372032366051
3.65,-18.652283358355987,3.706786038155051,23.39616397217144
3.675,-18.740573353514474,3.772202440364302,25.60546053618676
3.7,-18.563200773545184,3.730451034669012,27.689261843037265
3.725,-18.06884043678531,3.674161819936701,29.472723685091736
3.75,-17.432095199640223,3.668638385760524,30.942099499055587
3.775,-16.873678462792732,3.7399954550142196,32.264702597661525
3.8,-16.506412582517452,3.934619598543484,33.715434149898336
3.825,-16.153166260096878,4.152491214934175,35.42670806992521
3.85,-15.726964423309193,4.148212001882969,37.37559470183237
3.875,-15.271203607851467,3.8505625986435215,39.37452773887095
3.9,-14.945850449429377,3.4115514620378757,41.21767657800586
3.925,-14.769897942122475,3.0583601895689814,42.84093479666006
3.95,-14.571210097032004,2.9555655823981337,44.275084474743295
3.975,-14.247855387593823,3.183671094119508,45.62586555196877
4.0,-13.933119934755634,3.651459470194381,46.96253437950227
4.025,-13.66551174122909,4.140494086549049,48.37473387143113
4.05,-13.304962086710397,4.466406857129954,49.98339857499135
4.075,-12.868179658424214,4.491966535441791,51.77975592207789
4.1,-12.47918507615377,4.249906724797643,53.68850551718104
4.125,-12.251156731264139,3.9648460477664194,55.73734380330399
4.15,-12.165423919371731,3.6960395328653277,57.9893317054822
4.175,-12.241594614140993,3.464897751681288,60.49858028743275
4.2,-12.499109452876809,3.3955202325289155,63.22533681536969
4.225,-12.839120094405391,3.578669421481636,66.02094393921776
4.25,-13.135260632043531,3.9365036426337547,68.69865771550514
4.275,-13.370026590155991,4.330002272388062,71.11977288887837
4.3,-13.600683152171632,4.731292673499576,73.25104302885426
4.325,-13.855404975830934,5.220293606743728,75.11318456675446
4.35,-14.02736370332553,5.818772645281915,76.70583060678615
4.375,-13.974759499191018,6.427967438886498,77.9990326530507
4.4,-13.811468610170069,6.933154011644534,79.00835990891956
4.425,-13.696374570353406,7.31096395834963,79.79524378259794
4.45,-13.68513300673426,7.61622309644522,80.41909021616915
4.475,-13.775924735140757,7.902276396866307,80.92360427375313
4.5,-13.955673860519264,8.197732034304662,81.33587129743681
4.525,-14.191491825787748,8.498069982386706,81.66697366975534
4.55,-14.466132503979122,8.773623696272985,81.92949841805276
4.575,-14.766497509905218,8.99582817724071,82.1141597472213
4.6,-15.05310093254212,9.175539456314013,82.19576957517874
4.625,-15.314784500778337,9.351285412847163,82.16804921396285
4.65,-15.588546008316975,9.533721832690308,82.03449206653926
4.675,-15.93354648556067,9.73654485192167,81.79028754570906
4.7,-16.37375979658973,9.957724426849072,81.42095184285776
4.725,-16.88591764282237,10.138385159163413,80.88274923911457
4.75,-17.461557223151523,10.214759749304411,80.09475526217811
4.775,-18.08380759918391,10.206544194932762,78.9555617512949
4.8,-18.71947258970485,10.186124305334953,77.37567919455499
4.825,-19.352679980748842,10.162198829125035,75.33103092938966
4.85,-19.984221064740304,10.070439719661538,72.8636931767469
4.875,-20.590186811230527,9.801245874924454,70.04951032636899
4.9,-21.129996470951202,9.289461032267598,67.04243585532706
4.925,-21.534467993773358,8.592823815954977,64.00323175638526
4.95,-21.738157970609443,7.845948245896788,60.95766082096477
4.975,-21.820145232449065,7.147633144129091,57.82172056901214
5.0,-21.81945125353571,6.477221554994561,54.50970539489572
5.025,-21.682959566521593,5.772685788879917,51.020837936742346
5.05,-21.352176032819624,5.018688224352043,47.42017903030773
5.075,-20.792476551031047,4.272195480996737,43.7528339981382
5.1,-19.997732890283203,3.610822602607269,40.037198755046475
5.125,-18.997833252359346,3.053141214102559,36.30194063083141
5.15,-17.92856246543461,2.5658939609157,32.59725818159099
5.175,-16.915997261660998,2.0839109588001095,28.975745632079665
5.2,-15.986323014071585,1.555992037858814,25.45972366191172
5.225,-15.12819904606824,0.9924618464615674,22.046035112089932
5.25,-14.31754771761628,0.42757214970894863,18.732087432626827
5.275,-13.549245919119642,-0.14046824840028843,15.51567575468472
5.3,-12.866358572311446,-0.7322914888016032,12.40609888427553
5.325,-12.321255985043491,-1.325515976663788,9.44616481192795
5.35,-11.987053127032814,-1.8564427495526445,6.71233409480107
5.375,-11.890691020115975,-2.2599558109601743,4.27295794169871
5.4,-11.912584418240042,-2.5049044832883536,2.0801529505317506
5.425,-11.935966723598401,-2.6379854210250544,0.09597046564584631
5.45,-11.933144793271193,-2.7383006450503116,-1.6608648611693189
5.475,-11.978493018155232,-2.849757983502314,-3.1664347843561873
5.5,-12.180539116299322,-2.997198578035826,-4.417870168692652
5.525,-12.608415172953107,-3.189348143696021,-5.412014149931779
5.55,-13.266776413648858,-3.411455520172768,-6.1189272717223036
5.575,-14.135272458421817,-3.6193923155937604,-6.523061336396119
5.6,-15.172392712186026,-3.7143635252202754,-6.634832022257927
5.625,-16.31577165509036,-3.6233170094139213,-6.397146645273527
5.65,-17.391573880778598,-3.3271119077448676,-5.884371502423079
5.675,-18.182834124400557,-2.8261934431029965,-5.280099355578247
5.7,-18.694691016414478,-2.1727474806644023,-4.594416646098044
5.725,-19.032800721226636,-1.5083171051352533,-3.768716677426069
5.75,-19.310890090751407,-0.9517420707106019,-2.7492437466544044
5.775,-19.586117219615968,-0.577694259163527,-1.4909220012841213
5.8,-19.86770400875442,-0.4312744152929923,-0.007405471774048261
5.825,-20.140382585202016,-0.44462087370203013,1.662323676635372
5.85,-20.379791367824996,-0.4866518619407363,3.4422875316446313
5.875,-20.599872239485908,-0.4557085693925151,5.258615075634495
5.9,-20.825282921842476,-0.28610577520834424,7.071476522754535
5.925,-21.064296186829434,0.07038110786935213,8.86671372788016
5.95,-21.223598603134633,0.6290703542494752,10.601356191069247
5.975,-21.186458811228324,1.3306567734727068,12.248681479584654
6.0,-20.97606912442113,2.075107247713742,13.820300169868425
6.025,-20.704267363249013,2.7737447446911334,15.317069698196125
6.05,-20.4294587715857,3.4060278759845866,16.700892623143837
6.075,-20.16513245868569,3.9809460675522073,17.916816537827163
6.1,-19.966116939174196,4.483243471719368,18.9198332150677
6.125,-19.900863916203114,4.873277202441629,19.711484841650822
6.15,-19.959040170575317,5.130682930951531,20.324351269677063
6.175,-20.077369606269187,5.283459775906143,20.768362145125085
6.2,-20.225254146743254,5.411683800851757,21.01263076973964
6.225,-20.382408519953547,5.593614346845182,20.97363781705853
6.25,-20.495898135433052,5.857422186805544,20.569867819149707
6.275,-20.50689985492514,6.176851618228958,19.817801085259784
6.3,-20.37853891060144,6.472768781392533,18.83866981087346
6.325,-20.131019551897523,6.640417829791078,17.789567426203728
6.35,-19.883441387350494,6.61281200924053,16.825463249702132
6.375,-19.827107020253262,6.424541961512242,16.14229827735174
6.4,-20.117509832210676,6.186955888142363,15.927625042985865
6.425,-20.66303006765109,6.035824735239952,16.174233385952693
6.45,-21.356554202750683,6.0672115526049115,16.698377763629647
6.475,-22.176235926498016,6.302412109343168,17.292220245308602
6.5,-22.92564990404623,6.701030315869375,17.814559425189834
6.525,-23.414789971298575,7.177487638478827,18.253628491167976
6.55,-23.634986449425348,7.623011772491368,18.6551424680431
6.575,-23.69611524733786,7.939975477540476,19.032629026117736
6.6,-23.732765267310548,8.085428698384959,19.36962885310078
6.625,-23.80374425608278,8.081858179543119,19.618574666356277
6.65,-23.89782822805816,7.998761339677082,19.72061539535315
6.675,-23.961039177365315,7.918874247917907,19.649760548959723
6.7,-23.92448916291458,7.921120315704173,19.424540634474667
6.725,-23.74673119945555,8.05823363617688,19.086018385471736
6.75,-23.44706878704087,8.326286666305457,18.670812401511245
6.775,-23.106715934545882,8.66527862457654,18.227230156753556
6.8,-22.80608635638052,9.007989382421238,17.826049700083253
6.825,-22.564991243592086,9.292718282795157,17.52800107394031
6.85,-22.40168418656208,9.47395101722612,17.376332807389414
6.875,-22.3476461432505,9.575464614259863,17.414705941611977
6.9,-22.389855997420636,9.682598977246048,17.634554354285758
6.925,-22.50543616722015,9.868210315817231,17.955081011015658
6.95,-22.685086451561038,10.152066596563145,18.273442557763026
6.975,-22.876014003866633,10.50314408979972,18.50382503928134
7.0,-23.023728355839314,10.86397806507147,18.59160423357237
7.025,-23.10430932314742,11.171826809110943,18.522333144048314
7.05,-23.104821509997656,11.406294753326828,18.285958332523155
7.075,-22.998444370286272,11.58945329306886,17.84327979603949
7.1,-22.78560135858416,11.733318309231505,17.16577182290161
7.125,-22.503346929223685,11.809558097289203,16.264478857860468
7.15,-22.209977134873398,11.782885829338714,15.19639805605176
7.175,-21.995819440219435,11.66308502599855,14.117776239663574
7.2,-21.945199590436737,11.510194122585858,13.227977404331245
7.225,-22.027704318676278,11.39302145236272,12.583239555256599
7.25,-22.185682070551177,11.345200450232529,12.092420286947322
7.275,-22.358043869565073,11.35894587388579,11.730218883581346
7.3,-22.414812900169693,11.422804117403652,11.533904312658334
7.325,-22.22515880099088,11.510446838018057,11.48199995069822
7.35,-21.772006275686547,11.583066089301413,11.543534169775697
7.375,-21.119090869105374,11.59899645588964,11.708861035265391
7.4,-20.38126968866963,11.540113699844268,11.976382654542528
7.425,-19.663473877800875,11.403614802362346,12.339859084346203
7.45,-19.01887982568709,11.186069135625,12.795542392505247
7.475,-18.457155936610327,10.898178631448287,13.341386706288802
7.5,-17.9499893431354,10.547630353287992,13.948780760115703
7.525,-17.494384580069486,10.114296969628166,14.578751608573254
7.55,-17.125502766243972,9.572699834219707,15.226399264039756
7.575,-16.86051249596537,8.938143021019762,15.910531244526332
7.6,-16.654467679238746,8.261374487985185,16.626583238067937
7.625,-16.47952185765507,7.576108377097919,17.33902039020139
7.65,-16.35196331824679,6.881316485266457,18.014071237693123
7.675,-16.28061615322035,6.182366178243092,18.634841207020852
7.7,-16.252476391564485,5.488845482052825,19.16837439760516
7.725,-16.28112855355907,4.794822780374602,19.57865073024997
7.75,-16.417107717280658,4.098354801039459,19.87529111622131
7.775,-16.64321078802079,3.4071906672917374,20.0503846435979
7.8,-16.881736955946593,2.7480569136364337,20.071407604810325
7.825,-17.171269811741595,2.1128468548819215,19.99661440669246
