Time [s],Flexion(-)/extension(+),Abduction(+)/adduction(-),Internal(-)/external(+) rotation
0.0,-1.804619287201508,-1.3726907638178234,3.504493148984983
0.05,-1.7678829150211173,-1.3655238138557757,3.535269479880881
0.1,-1.7376326697423905,-1.3554307234313387,3.555868776418207
0.15,-1.7008340283709913,-1.3306888848245058,3.5822871165753676
0.2,-1.6699098336068352,-1.316089554294772,3.5816885081221144
0.25,-1.6465636914175625,-1.3189994411698402,3.587134299235013
0.3,-1.6293080892626706,-1.319979796322675,3.603910486646378
0.35,-1.6194131213366134,-1.3397623114974362,3.617210746904327
0.4,-1.629044756324136,-1.344164525963299,3.6356955533671003
0.45,-1.632949651209157,-1.3750146001329557,3.670225091547482
0.5,-1.6189768214724647,-1.3888602565329653,3.7014822750362177
0.55,-1.6178843593527232,-1.4046748643515017,3.73042131534937
0.6,-1.622387196885231,-1.4275501888643605,3.7466872953229475
0.65,-1.6403595342915855,-1.4457412847508864,3.7534910394026797
0.7,-1.637011268932907,-1.4557848396034845,3.7563593579761614
0.75,-1.622401574059533,-1.457944792151331,3.7905252296163963
0.8,-1.6374524574626774,-1.462771417325421,3.7932213453472303
0.85,-1.6584351485424433,-1.4823771155237502,3.791801075758461
0.9,-1.6484697984021894,-1.4880516600638503,3.815788871479672
0.95,-1.6609550869991712,-1.481256596281423,3.844392271784772
1.0,-1.7146080276425504,-1.4521980832138641,3.8687969239639743
1.05,-1.8438995652379404,-1.353259748370142,3.9428131499334063
1.1,-2.0236888440439054,-1.129301953282845,4.078592362006949
1.15,-2.2315071864854663,-0.8484119827902643,4.261160605722329
1.2,-2.464747962153476,-0.5886138499664034,4.247628676881489
1.25,-2.5717447915801284,-0.34388417835297574,4.194384571782225
1.3,-2.6209903781934965,-0.03800597994573248,4.193773814191473
1.35,-2.8348613745881965,0.5533362374067597,4.546615023593567
1.4,-3.272999066220078,1.439833300569362,5.774120454871046
1.45,-3.8257013120241803,2.5730422274592057,6.901038936131323
1.5,-4.64584942915687,3.912458386878539,7.482178153949818
1.55,-6.111795481228903,5.3108792013377375,7.964040410232591
1.6,-8.263329287726764,6.745437332857554,9.055458487854635
1.65,-9.811069092111387,8.326392554244133,9.733649237461055
1.7,-9.721414076724546,9.988320638131444,8.44532461770822
1.75,-9.832294685011995,10.979803794124095,8.268987378663653
1.8,-11.189762077762028,11.983462055408372,9.810983726452221
1.85,-10.179443123621647,13.263395325383875,8.574404053258949
1.9,-8.452078946571117,14.027524105896147,6.988364549367453
1.95,-7.121360246048036,13.027213254011974,8.461086628791255
2.0,-5.731188434379994,11.895788728281795,8.32230794307687
2.05,-6.317384029989294,11.221553982824576,7.112755748549372
2.1,-6.8275655665652035,10.089133574221425,6.499507595346686
2.15,-6.767671862368664,9.281255103559443,6.573375465239622
2.2,-7.187824534348751,8.688338573323058,6.198954414961313
2.25,-6.648129774067684,8.820624442379344,4.961775634351447
2.3,-6.176431746801639,9.070344610022365,4.315631032734947
2.35,-6.659779653991694,8.887191467217225,5.344123852839652
2.4,-7.4219517112403235,8.589087306132095,7.680259960401583
2.45,-8.547320151936605,8.61864260735233,8.626690963170535
2.5,-10.50746435062395,8.722798623513878,8.321795534780934
2.55,-13.092807564189863,8.539707326564008,8.33727634051711
2.6,-15.2158451884447,8.2813911171021,6.791199968284254
2.65,-16.255317064915545,8.430144547450961,3.6943267084636924
2.7,-17.409179194910074,8.893830970931415,1.216283820350377
2.75,-18.83257623613014,8.931061248734826,1.1113994370946727
2.8,-20.438610570521337,7.732798563490399,4.084947404703422
2.85,-21.453240890635072,5.4839778058058535,6.628949068189708
2.9,-21.3541538116703,2.6239885478175586,7.343808813248065
2.95,-20.531464772123375,-0.2860776378247016,6.203381194876962
3.0,-18.89032192429127,-1.1850716889037556,3.014797312763144
3.05,-19.539738409049544,-0.6129673114216646,1.0247784729692804
3.1,-20.46336609047385,1.5109095344782861,3.716475593124159
3.15,-20.38107693472524,3.074942345599032,7.508226939574631
3.2,-19.268484676542776,3.4687710294075482,10.204357734783414
3.25,-16.735108234740284,3.9319747531884914,9.874876631066048
3.3,-15.459511759762202,3.8432850408771304,9.277863942537492
3.35,-12.820414505439247,3.088500696518008,6.888762787058723
3.4,-9.825188114357085,1.5435414872046804,4.216610921085067
3.45,-8.299991147497837,-0.7568574670752353,3.7833364355834203
3.5,-8.265519959950787,-3.2919156442196527,3.9842717943406845
3.55,-8.164173990980476,-5.1562191947549225,1.6955683751318202
3.6,-7.662251793864843,-5.956899692069069,-1.8036760054397607
3.65,-6.291052884252954,-6.0056496623774684,-3.1759247226473675
3.7,-5.132109693549661,-4.946710284380319,0.34063960057511034
3.75,-3.858049552805564,-2.8732689153928064,3.7391719309893885
3.8,-2.8964606017511363,0.27043656325478643,4.5904898969766
3.85,-0.4764600719358079,2.2858466227903893,6.113710525417919
3.9,-0.4204671056218804,3.213311274961118,4.939614023100195
3.95,-0.9472651598178302,4.694951675267102,4.031865099781852
4.0,-2.0449321307526067,6.048606373601019,7.003695394125419
4.05,-2.697975886662627,6.236608953556482,8.517487368987284
4.1,-2.269824230649775,6.111539728406026,8.745322751728406
4.15,-3.3122911988891786,5.940238319150228,7.644545330068254
4.2,-4.694866142601312,6.175053120589585,7.476051979094653
4.25,-5.442867559630744,6.359014503793627,9.539152241551083
4.3,-5.557111005543369,5.827522104357047,10.755095169615975
4.35,-5.026437315038404,5.950896635506879,9.126642929282927
4.4,-4.166580940365553,7.136498908667903,9.236711076508847
4.45,-2.5986179869902166,8.620662852196459,10.918166490741987
4.5,-1.699727193990426,9.469606990483802,13.381605433235425
4.55,-2.7937936849531066,9.9491109902089,14.957661388831788
4.6,-4.929133709672791,11.056304145933,19.303295938106636
4.65,-7.205844705624404,10.356678629070542,21.647813744359865
4.7,-9.00600013094671,7.914633518967365,21.16389018039461
4.75,-11.165494608020156,5.256978994197452,16.06510642947248
4.8,-14.917582166745643,2.8073330016446385,8.953672410542621
4.85,-15.928401626081536,0.834058475208512,2.955160034547246
4.9,-15.605690412243288,-1.396485015555507,2.2662462280276
4.95,-16.91523323070109,-4.400271913718219,4.3003206947972545
5.0,-17.078577965998615,-6.5055085580093435,5.453648708860257
5.05,-16.196359093559302,-7.741779692799925,5.1186636565474055
5.1,-16.774693525681162,-8.275370350310972,3.791179927392579
5.15,-17.428703464697016,-7.980395286266814,2.931712921222102
5.2,-18.629756450032712,-7.165076238172229,3.309698571336129
5.25,-21.480830198079776,-5.109289485024905,4.3355818854530535
5.3,-22.819180704368343,-0.10801334583280255,6.583019721158807
5.35,-20.24450101981681,5.405543370311133,4.300541241479394
5.4,-18.79678172509274,7.6975044065191485,4.023434250201306
5.45,-16.631217440026933,10.385929417659002,6.366159289891552
5.5,-15.94320820672862,10.585283110378414,7.885695452169856
5.55,-12.359973936943774,9.13686756588871,8.28021574853182
5.6,-8.102705930728115,8.72063867188419,9.296487199734061
5.65,-7.796251107033652,5.970982049583402,8.808966420183262
5.7,-7.2554327439271935,5.876059748426928,7.668226108039666
5.75,-4.986940545651915,6.3495419120326275,6.626604650598649
5.8,-2.6921602986010957,6.793487936541645,4.512062105462505
5.85,0.20080025132283688,7.131361957837485,1.5501015562273448
5.9,2.638983925463801,6.677435716017601,1.1199064643698204
5.95,4.453529910544081,5.489712445131733,1.1753054117790522
6.0,3.4341117900904035,4.420072084753021,-0.1161329569228903
6.05,-0.972401626760592,2.983254577822723,4.900120886415908
6.1,-7.257113457756578,-0.34424827810191944,9.708338562791965
6.15,-12.755418999357714,-1.355008843677689,4.631541735925434
6.2,-16.417755349999805,-0.6656660918889205,1.8968986127958556
6.25,-19.750335232712875,0.786804251667118,3.6579339390762073
6.3,-22.79874182127083,2.6124108124128305,6.535548821489087
6.35,-24.120772445186944,3.432043636615322,8.681806680780292
6.4,-22.778395007715993,4.375328024489979,10.0569123669223
6.45,-20.495216067600893,3.7443973755381674,11.958559822576564
6.5,-19.17892926287826,2.301432583405021,10.408214873672813
6.55,-18.589409257905846,1.7423823975906085,7.489564562974692
6.6,-20.211192739061026,4.444847030630653,5.5543038162100515
6.65,-20.79629715727963,7.272798913294141,7.978877208631035
6.7,-17.317926282209307,8.417960351385728,8.413967600332715
6.75,-14.979805267876001,6.9048969651534104,8.237242158927522
6.8,-13.78141670271521,8.732640394057139,6.424753854729373
6.85,-12.084084204026881,9.533067568468105,6.975172553327788
6.9,-8.984974213400342,9.716555844378979,6.961400029499044
6.95,-6.504289703628462,9.080566728662152,7.88100191974702
7.0,-4.785334108452616,7.510466232437305,6.735255409707375
7.05,-3.621602451300453,7.493540103633839,5.225204119141057
7.1,-2.058458915434843,7.596614665486592,3.9494649331258853
7.15,0.17423303721375807,7.608563935025104,2.7221312724085323
7.2,1.9971279868260625,7.08377221127994,2.035784940712066
7.25,2.694799267458752,6.568356609473521,1.439637289657682
7.3,3.1009949554427885,6.163633132137022,0.3648736480733419
7.35,3.283921870006772,5.53944855542388,0.32154212083592937
7.4,2.8946860146987206,4.227217276178455,0.4298702930436287
7.45,1.877968144705004,3.4323140611197753,7.128427100999953
7.5,-2.097723893680842,1.2530336485707354,12.152289706491155
7.55,-8.174277541015721,-1.457880591651121,9.74548072056851
7.6,-12.831520718674993,-2.853562894780797,1.0431790931796223
7.65,-15.11233534374686,-2.5708506257155146,-0.167587667612448
7.7,-17.293118624384643,-1.755872570893443,4.16487986458787
7.75,-20.078552341169186,-0.9998665759462387,6.559660745187221
7.8,-21.8577535215284,-0.08893955077766648,7.692776069370638
7.85,-21.389747467527446,-0.18829699064691977,10.55334510817736
7.9,-20.020525976033568,-0.8159639457457208,12.039198943631687
7.95,-19.492598003393564,-1.0174460742562441,11.374363993383362
8.0,-19.803276021908765,0.20641860972737666,8.784554581953714
8.05,-20.39695559087751,3.1516593246742177,4.313579875858385
8.1,-17.814359350092023,8.282618777203158,5.143879446479286
8.15,-19.50202017136388,13.07129321027895,12.443314682195535
8.2,-16.938382357962656,10.710460475917555,17.037793581975063
8.25,-12.737836961789888,13.162100240987984,11.0428785641224
8.3,-12.358693381594637,14.538451787289084,8.156765165712917
8.35,-9.454699683243899,15.197190672884062,8.163050953583047
8.4,-5.993062854908521,14.329229291074785,10.923065878589922
8.45,-3.5449635496330356,12.224184550216187,10.65608670136318
8.5,-2.1981043821083217,11.012983322572977,9.571957848081796
8.55,-0.5492266560286021,10.060805261753895,7.95074324558779
8.6,2.1726462309889483,9.39605207414347,6.142296659334341
8.65,4.119445750190576,8.476293446577854,5.666789652802104
8.7,5.733464799521857,7.51717042875595,5.315217328757441
8.75,7.135140926464139,6.060562354271376,5.436997371052804
8.8,7.841593814474784,4.415288434164141,4.592489865542917
8.85,6.021037915458213,2.498668168237478,4.355152803609846
8.9,1.6394088440079073,1.2492667489170453,9.889635260837293
8.95,-4.593229907548634,-1.0724003552995431,15.423854844866845
9.0,-10.978164697700796,-1.2375275102491348,9.076549775434152
9.05,-13.552290492810434,-0.0361101920303177,5.008393214874982
9.1,-16.657664191308207,1.3464127434686424,7.060130317563442
9.15,-20.935915672368722,3.373236373108028,11.744475465074498
9.2,-24.844341503591117,4.265568057486049,15.008072122000799
9.25,-25.537311331053193,5.7037989499131925,16.624100967675755
9.3,-23.490244701929317,6.305843278443245,17.747727023422186
9.35,-21.17336466342184,5.902919039411244,15.786077544728201
9.4,-19.17317652305003,5.555880369592982,10.324008078062208
9.45,-18.1075635381191,6.079642180199633,8.67861325333964
9.5,-22.040147700522933,9.279782702845827,15.74024972470424
9.55,-15.729122260396958,9.796638109758488,16.098065261072367
9.6,-11.973667892984635,5.803720060479895,10.590866203485195
9.65,-10.37531191520835,8.207429703625484,6.433860196389619
9.7,-7.65429230624687,9.371996235692581,9.750368494527093
9.75,-4.171856330472945,7.566502910061454,12.233188543365378
9.8,-2.1841118521496625,6.542945675998233,13.414570716818671
9.85,-0.013324766721262205,5.939147899197845,10.735900773801172
9.9,1.8430385972344412,5.592501060456156,7.677110206629809
9.95,3.9746990155217854,4.645464032983376,6.248258347475803
10.0,4.578627625237402,3.7499389524669096,5.988283300341905
10.05,2.8328083462089415,2.2215551844861596,7.312702418012584
10.1,-1.0958755772530515,0.15933001761193694,11.036090904434241
10.15,-5.56325733686421,-2.837229953013585,15.72344067495171
10.2,-9.331620426142177,-5.879536988127574,11.153788707134112
10.25,-11.487409953186383,-5.301238350659638,4.037550460376168
10.3,-12.65037631796076,-3.61734672998401,5.186283797785901
10.35,-14.159901260700806,-2.1925979356182936,12.332703985259556
10.4,-15.857047182590742,-1.3093147733158477,16.58457243479958
10.45,-17.351348801972286,-0.8964459099296984,18.296013019007553
10.5,-16.79152599276922,-0.6013202873364102,19.103944298802496
10.55,-17.183783561333307,0.08319544698161903,16.460345707342608
10.6,-18.11183883325277,1.6724105678882824,10.914351251976072
10.65,-19.010744581883024,4.10813590553631,7.109248162404492
10.7,-18.252371265141207,7.689889832997161,8.864621065612642
10.75,-18.723904131109062,13.41128215650689,16.088776508153384
10.8,-16.263163421223076,13.177612776188335,22.733275048843993
10.85,-11.828161320408402,13.539969266483714,17.09052107103612
10.9,-12.376388370914984,14.958868789803242,8.54109757330732
10.95,-10.563346537686106,14.602383080707323,9.769882976169432
11.0,-7.467454367029011,12.91857700856899,13.54716085431803
11.05,-4.5073739647372095,11.386929889104202,15.11234786507619
11.1,-2.1364731205493204,9.940891803070446,11.970215165730238
11.15,-0.7996200112192717,8.802582128166968,10.474952687800144
11.2,0.8814383873269142,7.5857752641886105,10.007126277978857
11.25,3.1951156549656505,6.850926678634313,9.040607639509906
11.3,5.386450693307313,5.6380074271737115,8.940943890701623
11.35,6.3412587345962,4.012254516316656,8.60987833739182
11.4,4.0237478843506,2.069698711241682,7.636148001045065
11.45,-1.9588575992717234,1.8402155980412924,13.658391756688202
11.5,-9.582109945280358,-1.2427516475547546,14.173558502200837
11.55,-14.63207540692807,0.24052841170826014,8.55297847299907
11.6,-16.51232042630378,2.5457074785093523,7.2646250095649325
11.65,-20.35579218896233,3.514805257211836,8.133034484517482
11.7,-23.71109219984088,3.1513606137924692,9.543522179798543
11.75,-25.67878980116614,1.9871535584145352,9.341077329770952
11.8,-20.221018633310436,0.6761297031527058,10.786306282966361
11.85,-13.577837613151639,1.5710179262255999,16.248022564490174
11.9,-20.719114853030234,4.241374112669534,22.71622310000654
11.95,-24.25561807056096,10.455512180787665,18.829299586750807
12.0,-18.44862646544715,17.9593949835229,1.835257428533079
12.05,-12.384123252689024,18.618026369068776,-6.862647887861248
12.1,-13.003651215567329,19.40172732210651,-1.9304139237509097
12.15,-15.608030278786707,18.83394592284715,2.0307566532572556
12.2,-18.74288572484554,18.283767637585353,1.1641108094718782
12.25,-18.211561343149054,18.82842142570451,-2.8608069945890526
12.3,-17.70158089607088,19.743178606044985,-4.536846475501932
12.35,-16.970355212894887,19.603469004818496,-4.211280643082299
12.4,-16.246333619314832,20.005676300648283,-4.135394136718231
12.45,-14.243091277051846,20.463059124169963,-3.5569538918532286
12.5,-10.42601654935933,19.965960273394064,-3.19193137476175
12.55,-6.223546069982285,19.437073103073025,-2.5775234089144625
12.6,-2.2583292450340666,18.825721571001104,-0.41910034682028896
12.65,1.1160684826480411,16.734783515820016,3.0111157241027158
12.7,2.476711132530274,14.535752351300355,5.810542236208291
12.75,1.1301482305171895,12.581802580215133,7.87646355025106
12.8,-0.25210378388196225,10.765018047627409,8.503899337254936
12.85,-0.6267983062993946,9.418295326072155,6.550643610569365
12.9,-0.47610199746503146,7.928020696954098,5.325036301874279
12.95,0.08977678757465446,6.812120848895414,4.844136777181999
13.0,-0.14083934641770673,5.902745865838452,4.382383431772483
13.05,-0.02656194679760135,6.124166087378343,4.6373558456530715
13.1,0.5406719154741756,6.5280047276053565,7.132601972252997
13.15,-0.20123056887561236,6.006278553191629,8.897407390519927
13.2,-0.7311802743881396,4.596452101816892,7.70925422727331
13.25,-0.7829999723395514,3.244133918220099,4.715236987512447
13.3,-1.779730707055835,3.0707617922670365,3.3442552786231916
13.35,-1.6961471901511798,4.3753757720711235,5.376480797586867
13.4,-1.4519407983954427,4.26187052143899,6.3612225752778855
13.45,-0.9912355960388542,3.6421762658159826,5.812258721151161
13.5,-0.131896508924694,3.1676085259466085,5.241468900889401
13.55,-0.14114482293091968,2.792994390129914,5.298951733151825
13.6,-0.17076666290600284,3.116789420914133,7.388460188702893
13.65,-0.31406911312075825,3.118865429648306,8.593853565839611
13.7,-0.8084866913143948,2.637912376899391,7.053458225837426
13.75,-1.8123629780826467,1.9366638045557925,4.572158084434758
13.8,-4.15669052351281,1.2545659017052293,4.262149786613583
13.85,-4.78944347236112,0.9498213546366634,3.1205387916020353
13.9,-4.377070833654511,-0.47900484165577245,3.152760221303279
13.95,-4.546021484822544,-1.227204556819189,4.234137240461779
14.0,-4.269602076868017,-1.2269597828587624,4.290385898381476
14.05,-3.425750989876779,-1.6798055380246772,4.123984450073496
14.1,-4.2095790318523365,-3.5590132385766755,4.960710994596155
14.15,-5.322930434219236,-6.680529277518494,5.791207951621382
14.2,-6.172057717414326,-8.793236093692029,5.936614265459443
14.25,-7.500582596844297,-10.284870203442024,4.931887648226271
14.3,-9.27792591189711,-11.307975676325675,2.5263393644348655
14.35,-11.080199915060659,-12.241541685494838,2.282645843706372
14.4,-11.693907395197325,-13.277743537076892,4.7210926801852064
14.45,-9.736664424668662,-13.12128153482354,7.675873935495227
14.5,-8.23330443383849,-12.806492937972761,10.76482586375658
14.55,-7.52300409045887,-12.764582957608969,11.424129940216899
14.6,-6.428353468185737,-12.80775461238306,11.100503124494255
14.65,-5.632415020172816,-12.755990813022102,9.993397498550937
14.7,-4.796922577133015,-12.389700895899885,9.64298476696513
14.75,-4.570997243125313,-12.083475217857089,10.609310295517927
14.8,-4.758262837455564,-11.691022496494918,10.892481288911853
14.85,-4.855793061924732,-10.876643131573063,10.04207330317565
14.9,-4.664143766246896,-9.501808078454285,9.848360559837737
14.95,-4.165600958089795,-7.340433104241701,10.229852846716192
15.0,-3.051193099986101,-5.2862647713732605,12.645547534673481
15.05,-2.715105758423029,-2.7105856973843636,17.131212658159825
15.1,-1.9735401379352058,2.0063364771603505,18.835347655440355
15.15,-0.1556132012537223,4.697753084758502,14.441159892061323
15.2,3.1735817204489294,8.103801711504712,11.636319019051045
15.25,5.313594148004078,11.870359194443422,14.32876665048973
15.3,5.6179492426946585,12.974287356916195,13.399914322447103
15.35,5.428611116731745,13.54328575609434,14.036388621299139
15.4,5.844732676762192,12.722693922855509,12.836899821577441
15.45,6.77051370638075,11.518692884123311,11.361704516332926
15.5,6.96092965185908,10.243941048018936,11.753990274589142
15.55,7.23706094200625,9.605415756386007,12.411972700397548
15.6,7.3131889780804125,9.026595853074003,11.688769310908233
15.65,7.0149664422036295,8.23281128965067,9.959950373714246
15.7,6.266482261956528,7.48465053772227,9.762076539157198
15.75,5.039338748690036,6.799660021420596,10.775681402689871
15.8,3.973435759309118,5.948852717568406,9.921965948327824
15.85,3.901277585642887,5.370246515757399,7.746389700267048
15.9,4.249597092581359,4.849488055468116,6.431372522530805
