Time [s],Plantarflexion(+)/dorsiflexion(-),Supination(-)/pronation(+)
0.0,-8.98215322126211,1.4179657697513124
0.002,-8.982608613626281,1.4179578530235775
0.004,-8.983099275668271,1.4180141675564142
0.006,-8.983581599547668,1.4180443651141208
0.008,-8.984120001733418,1.4181126648724336
0.01,-8.984675903000912,1.4181812292662075
0.012,-8.985259440560824,1.4182637605674253
0.014,-8.98587639029316,1.4183843625811734
0.016,-8.986500199194836,1.4185089100411863
0.018,-8.987175109876866,1.418671722884158
0.02,-8.987856330181874,1.4188519923835432
0.022,-8.98857302665834,1.419077869434977
0.024,-8.989310884139249,1.4193255027043095
0.026,-8.99007175198946,1.419607812782235
0.028,-8.990845338315987,1.4199537046893624
0.03,-8.991644979855831,1.4203260924783814
0.032,-8.992447819170136,1.4207623370894786
0.034,-8.993270484728512,1.421256485780341
0.036,-8.994108247678891,1.421792134914417
0.038,-8.994947254093914,1.422394878188061
0.04,-8.99578626222264,1.4230646862637282
0.042,-8.996655758631714,1.4238409762855995
0.044,-8.99748200199496,1.4246477432103017
0.046,-8.998321383071781,1.4255410139365052
0.048,-8.999161451363069,1.4265149140368885
0.05,-8.999985113671913,1.427565237851258
0.052,-9.000803587636618,1.4286964429766424
0.054,-9.001583850333764,1.429905810732829
0.056,-9.002398489036711,1.431191653738758
0.058,-9.003166953447684,1.4325863567137074
0.06,-9.003933031558937,1.4340420905986078
0.062,-9.004666772694959,1.4355800044015994
0.064,-9.005392430840793,1.4372020935156147
0.066,-9.006063364595583,1.4388661704117918
0.068,-9.006742978206832,1.4406132501364048
0.07,-9.007387804829008,1.4424261186342306
0.072,-9.008015611004014,1.4442909665756445
0.074,-9.008621383750613,1.4462244347152209
0.076,-9.009198702492926,1.4481920014132954
0.078,-9.009775554493952,1.4502155246751474
0.08,-9.010310318340794,1.45228439708984
0.082,-9.010825086528511,1.454366766862294
0.084,-9.011310692962999,1.4564920759002045
0.086,-9.011793486255678,1.458629042668084
0.088,-9.012251417097504,1.4608192169915686
0.09,-9.012698575084524,1.4630130819910985
0.092,-9.013109287538164,1.4652244777240844
0.094,-9.013501748415758,1.4674451595119642
0.096,-9.013876542906843,1.4696826029919783
0.098,-9.014252080447502,1.471923123844055
0.1,-9.01460104057073,1.4741736065278706
0.102,-9.014905390512197,1.47641201001666
0.104,-9.015228360793683,1.4786658496475313
0.106,-9.015511768894283,1.4809031521220601
0.108,-9.015757963509646,1.4831397141523148
0.11,-9.01603377861502,1.4853837532862202
0.112,-9.01626119102423,1.487597286427188
0.114,-9.016477447322051,1.489800971271431
0.116,-9.016694866962236,1.4920145657275474
0.118,-9.016868108173622,1.4941830877171345
0.12,-9.017069751323461,1.496365345390928
0.122,-9.017225478305534,1.4985054110254241
0.124,-9.017381569224638,1.5005958612227464
0.126,-9.017535750291813,1.5026839221416934
0.128,-9.017658154266224,1.5047294887388956
0.13,-9.017789460629398,1.5067550358442767
0.132,-9.017903237283942,1.5087374800850553
0.134,-9.01800001973721,1.5106841859047735
0.136,-9.018075821354886,1.5125765118634602
0.138,-9.018130901823852,1.5144348303141983
0.14,-9.018186240514863,1.5162365267475484
0.142,-9.018218709449947,1.5179966220596322
0.144,-9.01826056115775,1.5197033353211602
0.146,-9.018265785904312,1.5213880219152605
0.148,-9.018262957472903,1.5229948535983449
0.15,-9.018232734138959,1.5245663832165064
0.152,-9.018134716618981,1.5260726499325357
0.154,-9.018068424568247,1.527547559448067
0.156,-9.017966138880546,1.5289669023599166
0.158,-9.017790171750793,1.53035143177706
0.16,-9.017624723231819,1.5316562497701087
0.162,-9.017377546851131,1.5329346409084583
0.164,-9.01711764747275,1.534186728757388
0.166,-9.016804459706067,1.5353679521249546
0.168,-9.016457178481147,1.5365317731565193
0.17,-9.01601772619954,1.5376469656447924
0.172,-9.015552610057297,1.5387347093193946
0.174,-9.015007806819323,1.539796930320541
0.176,-9.014411124526525,1.540817977853255
0.178,-9.013726452453252,1.5418033767590333
0.18,-9.012976318372063,1.5427814014117738
0.182,-9.01214857062407,1.5437630123269646
0.184,-9.011231112989574,1.5447008421920854
0.186,-9.010240431782746,1.545646218110261
0.188,-9.009162040968016,1.5465795158282132
0.19,-9.007958998014528,1.5475190569066342
0.192,-9.006672656373286,1.548477395067418
0.194,-9.005293959570086,1.5494149335076766
0.196,-9.003818397893205,1.5503932292517015
0.198,-9.002201498158337,1.551387138138941
0.2,-9.000490134474337,1.5524265964629256
0.202,-8.998674914560105,1.553491400472715
0.204,-8.996772103738152,1.5545856900856856
0.206,-8.994733476698547,1.5557531083866447
0.208,-8.992611268578473,1.5569521178523755
0.21,-8.990374666341138,1.5582181254498728
0.212,-8.988044335986945,1.5595284084324326
0.214,-8.985636355108932,1.5609080038448897
0.216,-8.983142805048953,1.562359763147052
0.218,-8.980564335438967,1.563863801125268
0.22,-8.977919281606205,1.5654353403539956
0.222,-8.975233715553498,1.5670429818427851
0.224,-8.97249422637015,1.5687394446875087
0.226,-8.969694148074607,1.570473802226437
0.228,-8.9668738203996,1.5722786484893652
0.23,-8.964017448154408,1.5741023237907061
0.232,-8.961186713685334,1.5760001927204834
0.234,-8.958322543436134,1.577933408170608
0.236,-8.955452859829759,1.5798965165156185
0.238,-8.95260680144871,1.5818986781054543
0.24,-8.949777547967086,1.5838908119949402
0.242,-8.946950146006788,1.585921610772557
0.244,-8.944164021025365,1.5879500663782795
0.246,-8.941391598196775,1.589976784133016
0.248,-8.93863726545824,1.591984830258823
0.25,-8.935916358289397,1.5940042032392003
0.252,-8.933239611579909,1.595980946389064
0.254,-8.930606537229622,1.5979485727118459
0.256,-8.927957666716445,1.599851169179112
0.258,-8.925378173881775,1.6017225625921325
0.26,-8.922826063455675,1.603538615139847
0.262,-8.920320829483444,1.6052919029464692
0.264,-8.917820105454604,1.6069696401781137
0.266,-8.915372523053836,1.6085626744939943
0.268,-8.912953462746131,1.610064171034901
0.27,-8.91058017597212,1.611454978136504
0.272,-8.908252987967648,1.6127355426761814
0.274,-8.905992184144516,1.6138931653060369
0.276,-8.903789246069662,1.614919937997278
0.278,-8.901640093298973,1.6158238238265576
0.28,-8.899569216951928,1.6165895893236164
0.282,-8.897575791521954,1.617219743961221
0.284,-8.89566169166033,1.6177026803036376
0.286,-8.893861431247087,1.618034803243415
0.288,-8.892152363560543,1.6182209924632085
0.29,-8.89054944374686,1.618293754527769
0.292,-8.88906818057879,1.6182282933306835
0.294,-8.887733859340052,1.6180701700114442
0.296,-8.886506813570085,1.6177683478745126
0.298,-8.88542348621466,1.6173873131748917
0.3,-8.884490242058574,1.61687343352609
0.302,-8.883694173511024,1.6163329289866324
0.304,-8.883038449131496,1.6156862848462148
0.306,-8.882505232601368,1.6149793413073552
0.308,-8.882141410757269,1.61421817431178
0.31,-8.881899859432004,1.6134330151831284
0.312,-8.881777948624334,1.6125864620785268
0.314,-8.881821205835827,1.6117087332546274
0.316,-8.8819535870914,1.6108101781998228
0.318,-8.882189989274734,1.6098801841449386
0.32,-8.882523155308798,1.6088877579487875
0.322,-8.882964143341619,1.6079001099324823
0.324,-8.883464720995955,1.606837160470429
0.326,-8.88403392687257,1.6057484191722269
0.328,-8.884669663282807,1.6046085433028174
0.33,-8.885331548427265,1.6034222621503873
0.332,-8.886021931552134,1.6021674189031256
0.334,-8.886729471225719,1.6008599759853346
0.336,-8.887409512800044,1.5994987344768608
0.338,-8.888102370529086,1.5980562157359521
0.34,-8.888754188520027,1.596558294766948
0.342,-8.889370797812344,1.595028209041279
0.344,-8.88992280543876,1.5934293297535156
0.346,-8.89040586000789,1.591764833847299
0.348,-8.890811605609427,1.5900560550283485
0.35,-8.891126623670488,1.58832886077002
0.352,-8.891328814978147,1.5865782396557797
0.354,-8.891451105151683,1.5848135177500973
0.356,-8.891442619381396,1.5830276139825072
0.358,-8.891339922829852,1.581282222699289
0.36,-8.891098464652606,1.5795454188231268
0.362,-8.890744250343793,1.5778411824260423
0.364,-8.890255785006367,1.5761725130001907
0.366,-8.88964638607954,1.5745738708299735
0.368,-8.88893189371396,1.5730402302300333
0.37,-8.888076113557084,1.571554896675113
0.372,-8.887138045082127,1.5701716788459064
0.374,-8.88608187498631,1.568864426411775
0.376,-8.88489751929628,1.5676554756920702
0.378,-8.88362551891025,1.566529597662486
0.38,-8.882245454739207,1.5654667993352815
0.382,-8.880765266673551,1.5644938254414282
0.384,-8.879191137706066,1.5636257852321636
0.386,-8.877538162547623,1.5628667916855903
0.388,-8.875777026852695,1.562146531747746
0.39,-8.873941035488308,1.5615190610652017
0.392,-8.872014970666312,1.5609752593219826
0.394,-8.869986811564576,1.5604825326452516
0.396,-8.867877133033824,1.5600860485093981
0.398,-8.86569587518142,1.559731716518958
0.4,-8.863422572146229,1.559456823026383
0.402,-8.861077417917643,1.5592377603240848
0.404,-8.858661732135262,1.5590741534303523
0.406,-8.856176102230963,1.5589477061075179
0.408,-8.853645159542106,1.5589164800687974
0.41,-8.85106281960992,1.558894362388303
0.412,-8.848431670269038,1.5589657200720846
0.414,-8.845782572808545,1.5590443633672182
0.416,-8.84311481706507,1.559174500874021
0.418,-8.840436195595123,1.5593519639286961
0.42,-8.837757924650472,1.5595642548531676
0.422,-8.835095093818525,1.5597907945431666
0.424,-8.83245815815762,1.560044085241292
0.426,-8.829844985952443,1.5602969765329617
0.428,-8.827286006853981,1.5605575371945224
0.43,-8.82476464532065,1.5608099553710293
0.432,-8.822305162177047,1.5610562248470536
0.434,-8.819910885321505,1.5613018265330816
0.436,-8.817572420394546,1.5615039842288938
0.438,-8.81527739401682,1.5616599296800304
0.44,-8.813053698142038,1.5617748119587835
0.442,-8.810892946542634,1.561843342883316
0.444,-8.808766092963042,1.5618683491055378
0.446,-8.806716250586138,1.5618486527208466
0.448,-8.8046816520631,1.5617466056503697
0.45,-8.802691684881166,1.561587157267556
0.452,-8.800713659580737,1.5613662837686204
0.454,-8.798750408842979,1.5610505569026718
0.456,-8.796813343342873,1.5606861595663613
0.458,-8.794841855940998,1.560247340099506
0.46,-8.792874302091267,1.559740866665001
0.462,-8.790869960301608,1.559126761819045
0.464,-8.788843672111563,1.558447151701446
0.466,-8.786750760291909,1.5576870139697223
0.468,-8.78460433057367,1.5568245285979894
0.47,-8.782396676284963,1.5559000447667122
0.472,-8.780091077413111,1.554863438985174
0.474,-8.777727026269114,1.5537356890295917
0.476,-8.775265296049191,1.5525038585264797
0.478,-8.772676014291166,1.5511613324960702
0.48,-8.769992933665767,1.5497099640433758
0.482,-8.767193714163982,1.5481442931894842
0.484,-8.764262681787038,1.5464503069683284
0.486,-8.761215753824283,1.544629459164307
0.488,-8.75804463320839,1.5426789238243754
0.49,-8.754725761424028,1.5406109323288157
0.492,-8.75125989405029,1.538403895794314
0.494,-8.747656814823381,1.5360897791534076
0.496,-8.743944302772706,1.5336234013840466
0.498,-8.740058108424464,1.5310600661599747
0.5,-8.73606409488281,1.5283602344481662
0.502,-8.731918834591335,1.5255544351986607
0.504,-8.727683332667867,1.5226349041488705
0.506,-8.723296292995569,1.519630142851667
0.508,-8.718814246531723,1.5165219199297033
0.51,-8.714272235050293,1.5133696827390946
0.512,-8.709613827608255,1.5101280644912887
0.514,-8.704900404699192,1.5068435634454427
0.516,-8.700134987664935,1.503515195754626
0.518,-8.695321419642385,1.5001640855654583
0.52,-8.69048397842563,1.4968068636625151
0.522,-8.685636951848997,1.4934527037198502
0.524,-8.680816022599823,1.4901278531158832
0.526,-8.676010706990688,1.4868198262857755
0.528,-8.671241657203524,1.4835985236042657
0.53,-8.6665243357706,1.4804182569949982
0.532,-8.661879242126274,1.4773430724687424
0.534,-8.657283679271302,1.4743293283790575
0.536,-8.652814385593086,1.4714391570811542
0.538,-8.64840417688787,1.4686432367920326
0.54,-8.644126762870862,1.4659648294328516
0.542,-8.63996260815041,1.4634186943352825
0.544,-8.635900746090028,1.4609794443241317
0.546,-8.631967656112307,1.4586908157366891
0.548,-8.628152605897832,1.4565208343664073
0.55,-8.624482629318807,1.454456491027042
0.552,-8.62092980370264,1.4525220267509262
0.554,-8.617521233176541,1.4506739675704827
0.556,-8.614226038065208,1.4489598578351548
0.558,-8.611087607447926,1.4473170511247688
0.56,-8.608087309590838,1.445764981817653
0.562,-8.60519935783265,1.4442649911252055
0.564,-8.602488488733933,1.442818242306569
0.566,-8.599882995690193,1.4414074247998114
0.568,-8.597428544039614,1.4400507753081446
0.57,-8.595123913040927,1.4386774771415796
0.572,-8.592963781313877,1.4373317454023273
0.574,-8.590926088091367,1.4359657085147919
0.576,-8.589053582644327,1.4346045861435386
0.578,-8.58728175822959,1.4331775278337822
0.58,-8.585693772432506,1.4317404874217428
0.582,-8.584211531099426,1.4302605555928551
0.584,-8.58291209775904,1.4287323697440508
0.586,-8.581731046562679,1.4271649245029572
0.588,-8.580674802732586,1.4255302793434328
0.59,-8.579765473987921,1.4238475744592805
0.592,-8.579004228256585,1.4221223341224958
0.594,-8.578380694964723,1.4203599217635852
0.596,-8.577878279174506,1.4185523410455803
0.598,-8.577522444301623,1.4167451737431136
0.6,-8.577276445335626,1.4148910068524154
0.602,-8.577157005197499,1.4130482270487374
0.604,-8.577134606864856,1.4112122944285799
0.606,-8.577255781824057,1.4094188704285628
0.608,-8.577441507085098,1.4076370656503017
0.61,-8.577741601413775,1.4059568178454183
0.612,-8.578115217502331,1.4043355310251773
0.614,-8.578572919215167,1.4028291283598813
0.616,-8.579108950541569,1.4014074192779986
0.618,-8.57969227304987,1.4001381415619487
0.62,-8.580325114849616,1.3990217802779286
0.622,-8.580996397875682,1.3980495486267166
0.624,-8.581719917175281,1.397278248722968
0.626,-8.58246592237624,1.3966769735947204
0.628,-8.583189002772325,1.3962693392575405
0.63,-8.583911165239819,1.396063425806393
0.632,-8.584663661700873,1.3960797647322527
0.634,-8.58534940715457,1.3962480819953564
0.636,-8.586011132382044,1.3966589889305283
0.638,-8.586666127449051,1.3972764770393464
0.64,-8.587233548322974,1.3980755597799894
0.642,-8.587742612860861,1.3990630560518151
0.644,-8.58819398912173,1.4002098383510795
0.646,-8.588565753794576,1.401517790382661
0.648,-8.588882136726633,1.4030230514794204
0.65,-8.589086239415876,1.404654639220059
0.652,-8.589189035931156,1.4063893852878218
0.654,-8.589225803471368,1.4082689415456975
0.656,-8.589134878817225,1.4102167482907044
0.658,-8.588944352008628,1.4122925965798971
0.66,-8.588655679543667,1.4144241071416053
0.662,-8.588221927858767,1.4166210850684005
0.664,-8.587662474773637,1.418843989574129
0.666,-8.587009952707994,1.4211253206728702
0.668,-8.586226622387123,1.4234153110956513
0.67,-8.585337752960308,1.425720323382414
0.672,-8.58431780581584,1.4280057538738566
0.674,-8.583191297952874,1.4303069245515405
0.676,-8.581977592909618,1.432559770550846
0.678,-8.58065277854369,1.4347650445559474
0.68,-8.579227937516062,1.436946653357348
0.682,-8.577753742549392,1.4390722689048512
0.684,-8.576231903632635,1.4411550891303107
0.686,-8.574642394544416,1.443166545459561
0.688,-8.573046726934265,1.4451369184173704
0.69,-8.571423248463942,1.4470311481975193
0.692,-8.569799815865249,1.4488587829150683
0.694,-8.568210630711834,1.4506172835655953
0.696,-8.566699795952347,1.4523158999284216
0.698,-8.565242682570679,1.4539485403781622
0.7,-8.563871106531149,1.4555103295146767
0.702,-8.562605582849804,1.4570249534149071
0.704,-8.561458786977807,1.458461155050282
0.706,-8.560434409834487,1.4598250336072858
0.708,-8.559588925658927,1.4611327704570278
0.71,-8.55889547847244,1.4623692524754246
0.712,-8.558381161608626,1.463524541576022
0.714,-8.55801673666755,1.4646299132663017
0.716,-8.557842869480861,1.4656585568121059
0.718,-8.557819249599591,1.46661519762422
0.72,-8.557976744180488,1.4674810328899495
0.722,-8.558299326307528,1.4682846351757806
0.724,-8.558775007243803,1.468990919115309
0.726,-8.559388932192213,1.4696088751765248
0.728,-8.560132197731038,1.4701436266244472
0.73,-8.561003084440125,1.4705757312018868
0.732,-8.56195353072072,1.4709070116734486
0.734,-8.56302019282847,1.4711500065053398
0.736,-8.564162353069333,1.47128377021509
0.738,-8.5653715812197,1.4713162047240562
0.74,-8.566614715619906,1.4712367785826856
0.742,-8.567896848545507,1.4710574167338457
0.744,-8.569221177407542,1.4707918141698588
0.746,-8.570574496991291,1.4704154908189062
0.748,-8.571928363016696,1.469958253208736
0.75,-8.573285096415566,1.4693647370571932
0.752,-8.574673303305163,1.4687126762880596
0.754,-8.576057633093134,1.4679528260512889
0.756,-8.577451525803983,1.4671304308422217
0.758,-8.578854333241663,1.4661937940170227
0.76,-8.580257521287475,1.4652168383555468
0.762,-8.581707210261188,1.464159949911417
0.764,-8.583146334132195,1.4630361068226052
0.766,-8.584644073787363,1.4618392023211517
0.768,-8.586145675732013,1.460608734215572
0.77,-8.587697876233431,1.4592941287574672
0.772,-8.589284917335174,1.4579436849382874
0.774,-8.59090173351045,1.45656586137684
0.776,-8.59257394456873,1.455134987812959
0.778,-8.59428719943286,1.4537022973317775
0.78,-8.596029493613244,1.4522196061172408
0.782,-8.59779157601348,1.4507267576635203
0.784,-8.599604281241206,1.4492326754149192
0.786,-8.601453385217173,1.4477309698516367
0.788,-8.603279213027296,1.4462303420361993
0.79,-8.605139301373164,1.444752379033617
0.792,-8.60696811056829,1.44329779579305
0.794,-8.608795270548235,1.4418431047343554
0.796,-8.610569660619353,1.4404401985871225
0.798,-8.612287640048079,1.4390723113620747
0.8,-8.613959923874791,1.4377529255108612
0.802,-8.615545451383333,1.4364731757638014
0.804,-8.617041002582097,1.4352482285931423
0.806,-8.618466423158063,1.4341185785728452
0.808,-8.619746407225957,1.4330295486514004
0.81,-8.620941203850998,1.432026848782019
0.812,-8.621976481116466,1.4310884205080585
0.814,-8.62288219775257,1.430247381533289
0.816,-8.623655448444635,1.429480079531493
0.818,-8.62428996671028,1.4288121259999258
0.82,-8.624771372263277,1.4282320795173378
0.822,-8.625114552274214,1.427734982275861
0.824,-8.625291918400013,1.4273288376890527
0.826,-8.625340031684177,1.4270459308597596
0.828,-8.625261647244743,1.4268247310187143
0.83,-8.625041280261701,1.4267062031532862
0.832,-8.624727001169079,1.4266767870769597
0.834,-8.624290710081258,1.4267166598776744
0.836,-8.62374506659574,1.4268541817224267
0.838,-8.623141970876256,1.427085366805656
0.84,-8.62246084437635,1.4273730618744533
0.842,-8.621710435987158,1.427733232840717
0.844,-8.620908839285551,1.428171111348074
0.846,-8.620117146424299,1.4286804851531403
0.848,-8.619248243821831,1.4292473046512362
0.85,-8.618393417610282,1.4298876928783428
0.852,-8.617563897811122,1.4305908317930942
0.854,-8.616731524696927,1.4313338688214476
0.856,-8.615934163407987,1.4321542708990713
0.858,-8.615192128611202,1.4330327663897728
0.86,-8.614493267197993,1.4339433507664316
0.862,-8.61387674695456,1.434944909070693
0.864,-8.613339879984894,1.4359825682128278
0.866,-8.612898154701426,1.437088118251587
0.868,-8.612543143600993,1.43824235039448
0.87,-8.612300750346376,1.4394545681996174
0.872,-8.612140537722734,1.4406905889588357
0.874,-8.612115489600336,1.4420028334225348
0.876,-8.612208428347818,1.4433341484473983
0.878,-8.612425153984331,1.4447098212798015
0.88,-8.612807797639045,1.446112143060143
0.882,-8.61330080098889,1.447557371731156
0.884,-8.613927923377275,1.4489779024035294
0.886,-8.614683178993504,1.4504159290841354
0.888,-8.615607107910106,1.4518591875548459
0.89,-8.616636572471341,1.4532771063823702
0.892,-8.617824193402674,1.4546733747749323
0.894,-8.619135968662764,1.45604122857542
0.896,-8.62057013648522,1.457352771921484
0.898,-8.622136702331312,1.4586282015594607
0.9,-8.62382810331351,1.459822633636052
0.902,-8.625630811490655,1.460967001580085
0.904,-8.627557606919849,1.4620537782194523
0.906,-8.629568186486159,1.4630615505451399
0.908,-8.631695194585523,1.4640088759270646
0.91,-8.633905873365125,1.4648559887284716
0.912,-8.636198917509809,1.4656168581315765
0.914,-8.638573144832028,1.466320091903264
0.916,-8.641023630712937,1.4669020472361052
