Time [s],Flexion(-)/extension(+),Supination(+)/pronation(-)
0.0,10.601839411806521,23.347284506878623
0.002,10.601682804839365,23.347214235224023
0.004,10.601538078580496,23.347130584915096
0.006,10.601373972972459,23.347076601953543
0.008,10.60120927139784,23.34699400951746
0.01,10.601028918996361,23.34693532137098
0.012,10.600825692587811,23.346864546622385
0.014,10.600623384666443,23.346800127524435
0.016,10.600401689434909,23.34675171280705
0.018,10.600151325126248,23.346676489018716
0.02,10.599890574764293,23.346625101793474
0.022,10.599608392962445,23.346534462347062
0.024,10.599342776215263,23.34652517873464
0.026,10.599036608192483,23.346476503215786
0.028,10.598715019146637,23.34643160533286
0.03,10.598385394986126,23.346409677018684
0.032,10.598029252226155,23.346362853040333
0.034,10.597687151993085,23.346371571547934
0.036,10.597322881567937,23.346368288090943
0.038,10.596944857722681,23.346374917654007
0.04,10.59655777674568,23.34641009085221
0.042,10.596168483267382,23.346434823860818
0.044,10.595763071215195,23.3464645614801
0.046,10.595357316313244,23.346519990216436
0.048,10.594995200784018,23.346631554941954
0.05,10.594594873557718,23.346705285290064
0.052,10.594205499733416,23.34681240499686
0.054,10.593819669922647,23.34694633917165
0.056,10.593443534318922,23.34707324282647
0.058,10.593083271336306,23.347235294512554
0.06,10.5927253192332,23.347419010712837
0.062,10.592387119057753,23.347601287906606
0.064,10.592067603587605,23.347826200866187
0.066,10.591747356567843,23.34802638170832
0.068,10.59146579780867,23.348294098784724
0.07,10.591212630831576,23.348576445127087
0.072,10.590964284348242,23.348852304340795
0.074,10.590729643027194,23.349155356799375
0.076,10.590539091892088,23.349486090379514
0.078,10.590354338768643,23.349808383148204
0.08,10.590205564745476,23.35015387999085
0.082,10.590085404089562,23.350533942848635
0.084,10.589980248660044,23.350906378597724
0.086,10.589925215533613,23.351323051033443
0.088,10.589862726400773,23.35171648559024
0.09,10.589867232860898,23.35214549661204
0.092,10.589875297624053,23.352582269107696
0.094,10.589912466153596,23.352998741540663
0.096,10.589973452569462,23.353436514774394
0.098,10.590106381351745,23.353894058287988
0.1,10.590226963821669,23.3543318876969
0.102,10.590374970035954,23.354765487294472
0.104,10.590581195152762,23.355213018273776
0.106,10.590818169344285,23.355652897712574
0.108,10.591066542196252,23.35605828399382
0.11,10.591342280977504,23.356456575181735
0.112,10.591634427959466,23.35684078869261
0.114,10.59199659718744,23.357225196137144
0.116,10.592350558325531,23.357581585675074
0.118,10.592719148606344,23.357868160616995
0.12,10.593133592903195,23.358178280645358
0.122,10.593542203182169,23.358422914865685
0.124,10.593991015346655,23.358644786956646
0.126,10.59443337686095,23.35883088818872
0.128,10.594906674941235,23.358981559184663
0.13,10.595396757178593,23.359106818025957
0.132,10.59590203087067,23.359180952028435
0.134,10.59638932526195,23.35918428996751
0.136,10.596888804529003,23.3591563071929
0.138,10.59740110541324,23.35909648439242
0.14,10.597901960544572,23.358966967369188
0.142,10.598406680607523,23.35880448898462
0.144,10.598912702548436,23.35859384879788
0.146,10.59940610657348,23.3583108665563
0.148,10.599893217402451,23.357995110952437
0.15,10.60035458760641,23.35762590043424
0.152,10.600819582454783,23.357213141845733
0.154,10.601258075109948,23.356769623380842
0.156,10.601696353747792,23.35627448155773
0.158,10.602107356141124,23.35573710180805
0.16,10.602483856423227,23.355135408049698
0.162,10.602866411830247,23.354512872658148
0.164,10.603214170825863,23.35387359047045
0.166,10.603550213308583,23.353196005044236
0.168,10.603846176091354,23.35246470533818
0.17,10.604148534798195,23.35175656412325
0.172,10.604408653288875,23.350998236416395
0.174,10.604661219598427,23.350242990714523
0.176,10.604891047314368,23.34944878885348
0.178,10.605117816237012,23.348670870050295
0.18,10.605318175074409,23.347883454191766
0.182,10.605518517018574,23.34711238405562
0.184,10.605710698246197,23.346347585841436
0.186,10.605872035420724,23.3455705649824
0.188,10.60605133961924,23.344839841277306
0.19,10.606215760433448,23.34411616257995
0.192,10.606390744009703,23.34344131241307
0.194,10.606546145482225,23.3427638088824
0.196,10.60673111437497,23.34212660910712
0.198,10.606897028554199,23.341529345638058
0.2,10.607091886108003,23.340953356670976
0.202,10.607269474275409,23.340418551844742
0.204,10.607490562858821,23.339914942455557
0.206,10.607721761784097,23.339462156375504
0.208,10.607968110467755,23.33904888925577
0.21,10.60821550446465,23.338654668148887
0.212,10.60848478280642,23.338274187140733
0.214,10.608785216896404,23.33795242286084
0.216,10.609134689151182,23.337689607080797
0.218,10.609491358678953,23.337401958997507
0.22,10.609869846195878,23.337144759481397
0.222,10.61029351021956,23.336919973140194
0.224,10.610743632951705,23.336681330415345
0.226,10.611238521760539,23.33646797936357
0.228,10.611738199879149,23.336221938179282
0.23,10.612310359010797,23.336012804224
0.232,10.612923920649031,23.33578103644032
0.234,10.613595191132706,23.33556930366342
0.236,10.614277640954084,23.335321174338127
0.238,10.615025180944144,23.335048247652608
0.24,10.615807131694725,23.3347545817257
0.242,10.616636846590422,23.334455195446573
0.244,10.617534071412312,23.334129408213872
0.246,10.618446630373764,23.33374520851018
0.248,10.619433577594013,23.33337393057559
0.25,10.62043739907023,23.332932065577594
0.252,10.621493467877123,23.332467816906185
0.254,10.62260221465578,23.331981125894288
0.256,10.623775686703476,23.33149816405713
0.258,10.624982393966171,23.330969307583022
0.26,10.626203035994804,23.330419065854397
0.262,10.627463380037092,23.32983275568687
0.264,10.628764377690432,23.329214712579756
0.266,10.630098143845927,23.32861152865909
0.268,10.631465766192518,23.327995901976454
0.27,10.632857462174254,23.327369372587125
0.272,10.634254146485256,23.326731837577285
0.274,10.6356854051633,23.326094112000952
0.276,10.637139559058008,23.325503250438484
0.278,10.638597873694795,23.324895674491966
0.28,10.640069859738071,23.32430274586233
0.282,10.641569173833807,23.323749489816397
0.284,10.643030703130522,23.323196102957226
0.286,10.644534025085218,23.322688454709613
0.288,10.646019946101895,23.32218629554829
0.29,10.647522070333272,23.321731524805895
0.292,10.649020841984221,23.321297017234556
0.294,10.650495697851092,23.320874350538386
0.296,10.651979448692833,23.320493099397787
0.298,10.653452501332549,23.32013712393904
0.3,10.654917374776815,23.31981948510006
0.302,10.656368019592088,23.319479659052043
0.304,10.657810375584138,23.319177305682878
0.306,10.659240921532168,23.318877922338395
0.308,10.660652133244794,23.31858432702554
0.31,10.662076376483434,23.318325973650172
0.312,10.66346477507885,23.31803258686392
0.314,10.664828358224558,23.317734630964896
0.316,10.666189478745949,23.317472737496928
0.318,10.667526816711904,23.317171225502804
0.32,10.668837726411022,23.316881335960517
0.322,10.670130747192232,23.316594832258318
0.324,10.671411588658863,23.316330536941365
0.326,10.67266950502813,23.31607756847009
0.328,10.673867765877654,23.31583996341272
0.33,10.675054225054259,23.315629603770674
0.332,10.676178112242273,23.31545443820805
0.334,10.677287810379408,23.315355310273652
0.336,10.678334847910282,23.315322491998717
0.338,10.679366973822905,23.315429673421164
0.34,10.680322575493669,23.315617338990425
0.342,10.681218165862084,23.315902138842052
0.344,10.682052287837344,23.316367245408454
0.346,10.682832362929902,23.317024577939865
0.348,10.683508510370332,23.317876450750493
0.35,10.684130321399017,23.318915969471806
0.352,10.684672752387185,23.32021518178952
0.354,10.685139080653231,23.32179978258936
0.356,10.685506967325374,23.32365184984173
0.358,10.685783083094531,23.32582469171156
0.36,10.685968413492288,23.32829619824487
0.362,10.686048068475444,23.33111630822902
0.364,10.68602121524017,23.334272552014877
0.366,10.685901270162537,23.337797125112147
0.368,10.685657193105765,23.341680777229534
0.37,10.685322493756942,23.34594961937489
0.372,10.684855463171829,23.350571414202513
0.374,10.684292910058215,23.355583621383158
0.376,10.683611622534068,23.360947077359643
0.378,10.682841805410643,23.366700258067414
0.38,10.68192998116901,23.37277429109928
0.382,10.680938492290267,23.37921573336054
0.384,10.679834593137274,23.385964014679065
0.386,10.678629090468661,23.39302863534662
0.388,10.677322028766044,23.40037294192998
0.39,10.675932153146254,23.407988073444667
0.392,10.674469442681527,23.415867853132593
0.394,10.672912886186365,23.423967124364385
0.396,10.671287055210597,23.43225725296119
0.398,10.669589869848522,23.44074385120506
0.4,10.667842052572945,23.449387777979563
0.402,10.666039268595798,23.458150686893234
0.404,10.6641992857401,23.467029530421193
0.406,10.662339585905746,23.476018217057323
0.408,10.660436936542174,23.485038588524603
0.41,10.658513276880651,23.494119233447773
0.412,10.65656306134539,23.503199646456924
0.414,10.654648741938878,23.512313834962683
0.416,10.652718029319654,23.52140749486023
0.418,10.650793504814539,23.530442276841974
0.42,10.648916314068316,23.539474194524615
0.422,10.64703438433328,23.54839934718163
0.424,10.645192546292702,23.557253220729503
0.426,10.643366930484362,23.566008424724874
0.428,10.64160603925179,23.574672202266964
0.43,10.639897023240747,23.583246242674274
0.432,10.638225047508044,23.591691671173578
0.434,10.636600342787473,23.599969858861517
0.436,10.635034492681788,23.608144605594116
0.438,10.633514050589914,23.616129568522283
0.44,10.632058889437607,23.623999583499106
0.442,10.630640937419102,23.631654208292694
0.444,10.62931095132929,23.639189082604172
0.446,10.628001027078861,23.646505364881587
0.448,10.626776453564108,23.65365856030933
0.45,10.6255906552196,23.660615059039582
0.452,10.624466129885906,23.667385747327273
0.454,10.623389391092207,23.673943543475986
0.456,10.62235869078,23.680296679555354
0.458,10.621365097363295,23.68642044934916
0.46,10.62043531536756,23.692346895348177
0.462,10.619556100317329,23.6980648397703
0.464,10.618698323495376,23.703547328279967
0.466,10.617889657467607,23.708800808760312
0.468,10.617110609609124,23.713831752383978
0.47,10.616369341175155,23.718602897505992
0.472,10.615661587083702,23.723164723396813
0.474,10.614999732678502,23.72749613821159
0.476,10.614354685995682,23.73157510408089
0.478,10.613756454393485,23.735425761976213
0.48,10.613163720510258,23.73901019264597
0.482,10.612609632491212,23.742385413768467
0.484,10.612109564011021,23.745524269058343
0.486,10.611612264816783,23.74840938648436
0.488,10.611160901931202,23.751083217993248
0.49,10.610733599198083,23.753498275229152
0.492,10.610344765053027,23.755719912567923
0.494,10.609963196549412,23.75769837354898
0.496,10.609604826561213,23.75942069165061
0.498,10.609334206368793,23.7609691585101
0.5,10.609047669582429,23.76229996511031
0.502,10.608826299055172,23.763423478486835
0.504,10.60861981324773,23.764321766204677
0.506,10.60846567045045,23.76503814113456
0.508,10.6083449961517,23.76558021860213
0.51,10.608274151674063,23.76594071980645
0.512,10.60819044294466,23.76608918654146
0.514,10.608200754654685,23.766097805690112
0.516,10.608215363774558,23.765922461961193
0.518,10.608279470222769,23.765603812050866
0.52,10.608380088158581,23.765138034354397
0.522,10.60851359279984,23.764530085660212
0.524,10.608694315838346,23.76380980282268
0.526,10.608879792754179,23.76291461204211
0.528,10.609110670153415,23.761936686313668
0.53,10.609399306500663,23.760858760930912
0.532,10.609678952332144,23.759672671803134
0.534,10.609980053736916,23.758385229766887
0.536,10.610337384940129,23.75702770979558
0.538,10.610679307791512,23.755584669953304
0.54,10.611053615822799,23.75409081728417
0.542,10.61143561706641,23.75253912497598
0.544,10.611827021773816,23.75094108329716
0.546,10.61222597777928,23.74933765293619
0.548,10.61261016723811,23.7476857712421
0.55,10.613003856306102,23.746041072058176
0.552,10.613377805147676,23.744383072182224
0.554,10.613759584272888,23.742785661957694
0.556,10.614084138611712,23.741141703045702
0.558,10.614434612711765,23.73960182167814
0.56,10.61473618084187,23.738112359776032
0.562,10.61501649972514,23.73668881655946
0.564,10.615241931088788,23.735341296283156
0.566,10.615467875864272,23.73412495520739
0.568,10.615643833118668,23.73302934092389
0.57,10.615787385445332,23.732063680239605
0.572,10.61588075088135,23.731255485761825
0.574,10.615945937082191,23.73062948274154
0.576,10.615975161858339,23.730195649770934
0.578,10.615934782730655,23.72996139042802
0.58,10.615872713809207,23.729985713697367
0.582,10.615755855136038,23.730217257036795
0.584,10.61562609500164,23.730757464696804
0.586,10.615450906852898,23.731561124548104
0.588,10.615257683732018,23.73269264257973
0.59,10.61502957598076,23.73416113268106
0.592,10.61479338047487,23.735987085218436
0.594,10.614550897215187,23.73822058526053
0.596,10.614267554669143,23.740815361350403
0.598,10.61402150765776,23.743900856282742
0.6,10.61373673962026,23.747384011376557
0.602,10.613498892450117,23.751393586081978
0.604,10.61326743564953,23.755923738835257
0.606,10.613053281830876,23.760990248992695
0.608,10.612881852407053,23.76666055955383
0.61,10.612737530169431,23.772906260772746
0.612,10.612645943513128,23.779804777311696
0.614,10.612611479236426,23.787398034810035
0.616,10.61262981049072,23.795709278942386
0.618,10.6126963498953,23.804732451551818
0.62,10.6128593797804,23.81455519856307
0.622,10.613080816104024,23.825215221667474
0.624,10.613389738154135,23.83669693522983
0.626,10.613771681065039,23.84906211105415
0.628,10.614253688452514,23.86236121924502
0.63,10.614806915478544,23.87657740092142
0.632,10.615463004553185,23.891776175934744
0.634,10.616192509857163,23.907955870171584
0.636,10.617013386548507,23.9251516740343
0.638,10.617930396032827,23.943398756507122
0.64,10.618931855646649,23.962684724795547
0.642,10.61999148736538,23.98301578150161
0.644,10.621147666006944,24.004448572128187
0.646,10.622353733969817,24.026923686456804
0.648,10.623623010980243,24.05048774368134
0.65,10.624935315813223,24.07512396647896
0.652,10.626286978696161,24.100813325290883
0.654,10.627682281020796,24.127600385485746
0.656,10.629078323998721,24.155398102957008
0.658,10.630478310904769,24.18423261838401
0.66,10.631854679468875,24.214073279698447
0.662,10.6332260834387,24.244937818356973
0.664,10.634545351370898,24.276728168135858
0.666,10.635816922665327,24.309512720859434
0.668,10.637025661972244,24.343180114150883
0.67,10.6381400143801,24.377764507684702
0.672,10.639168393506102,24.413191500830333
0.674,10.64007507638647,24.449443504439646
0.676,10.640864173836919,24.486535450463478
0.678,10.64154198362107,24.5243826264837
0.68,10.642073979439985,24.562976390875
0.682,10.642471160648961,24.602259695808634
0.684,10.642718366011565,24.64221048862694
0.686,10.642814462452508,24.682755058603096
0.688,10.64277170125115,24.723883093000303
0.69,10.642605929873575,24.76555056841678
0.692,10.642280921064172,24.807661437218414
0.694,10.641858585349668,24.850213141928954
0.696,10.641330994434886,24.893138772723987
0.698,10.640731242023561,24.93635274523744
0.7,10.64001139672815,24.979781987379795
0.702,10.639272161189744,25.023437744157455
0.704,10.638509849006132,25.06718194494313
0.706,10.63774986032889,25.110973518778568
0.708,10.637018230341381,25.154762112702
0.71,10.636341764132721,25.19848497305387
0.712,10.63574824036108,25.242035996760706
0.714,10.635250508536329,25.285404645626244
0.716,10.634921165856827,25.328552925822457
0.718,10.634736749209482,25.37138210054311
0.72,10.634772913411373,25.4139203791402
0.722,10.635008058964118,25.45609040243745
0.724,10.635515480808415,25.497901970943648
0.726,10.636282917619345,25.539326777173105
0.728,10.637318487381087,25.58036535603161
0.73,10.638680772834602,25.62105998551675
0.732,10.640394660131358,25.661437891354943
0.734,10.642396937304575,25.701496172600557
0.736,10.644758136587688,25.741295412490786
0.738,10.647483973350026,25.780929672196976
0.74,10.650578089565766,25.820484398998
0.742,10.654046350414315,25.860016975077215
0.744,10.657855294747723,25.89960326779031
0.746,10.662056075310197,25.93938418646884
0.748,10.666632034518024,25.979487805383926
0.75,10.671537401120304,26.019977973547494
0.752,10.676831865248841,26.061052213566327
0.754,10.682482703051392,26.10278832655598
0.756,10.688464300556438,26.14536118718842
0.758,10.694787374356947,26.1888908915805
0.76,10.701476657579814,26.23354494962531
0.762,10.70844390228157,26.279380003198128
0.764,10.71576717112226,26.32662717277482
0.766,10.723379591814338,26.375343620483996
0.768,10.731287413454817,26.425663616211555
0.77,10.739494563296613,26.47770930042505
0.772,10.74799876263286,26.531582216944393
0.774,10.756776171764919,26.58737453264087
0.776,10.765843071447911,26.645175129467273
0.778,10.775173560301404,26.705020925753455
0.78,10.784778195027977,26.76696137010192
0.782,10.794668855685444,26.831056217456883
0.784,10.804823130637693,26.897282886502815
0.786,10.81525937983441,26.9656916765377
0.788,10.825987318115695,27.03624277247793
0.79,10.837013706166296,27.108896816732518
0.792,10.848326988574359,27.18358519485535
0.794,10.859956790294557,27.260291080557092
0.796,10.871915149479676,27.338902224920453
0.798,10.884225732079608,27.419362771129165
0.8,10.896921646166462,27.50154248406882
0.802,10.909974147865686,27.58530666929873
0.804,10.92346038757213,27.670564996758014
0.806,10.937399856349453,27.75718527753432
0.808,10.951775296435928,27.845009445138274
0.81,10.966663843257107,27.933892753142036
0.812,10.982051226724217,28.02365611869665
0.814,10.99802103578064,28.11421331893596
0.816,11.01454213741318,28.20534566288304
0.818,11.03170270739647,28.296942131988587
0.82,11.049469795897673,28.38881564545494
0.822,11.067936612016018,28.480883243002104
0.824,11.087089352010015,28.572939852854738
0.826,11.106946560385106,28.664835678136974
0.828,11.127550737098648,28.756474016989404
0.83,11.148917424058906,28.847711320954524
0.832,11.171068984276134,28.938463479414132
0.834,11.194006213653106,29.028566849455718
0.836,11.217753213617998,29.117971260325422
0.838,11.242291184944811,29.20653923524685
0.84,11.267646845703782,29.294218935060606
0.842,11.293830791456047,29.38092730415119
0.844,11.320801344785954,29.46660560529137
0.846,11.348608820424564,29.55121449617874
0.848,11.377163697369465,29.634646455287417
0.85,11.406516194435454,29.71693554376091
0.852,11.436632071851704,29.798012548694757
0.854,11.467487634709268,29.8778681555297
0.856,11.499037239227016,29.956483511019822
0.858,11.531284489791537,30.0338657439431
0.86,11.564196906546965,30.110031656641436
0.862,11.59774174116151,30.184955802167217
0.864,11.631889378550762,30.25866527727115
0.866,11.666575284683722,30.33117852015151
0.868,11.701819354687702,30.40253389420559
0.87,11.737504188389256,30.472717346849024
0.872,11.773673147859531,30.5418206709916
0.874,11.810256875926497,30.609856671417447
0.876,11.847198272924926,30.676870661067294
0.878,11.884500680435636,30.742911136210083
0.88,11.922089898958351,30.808035784407316
0.882,11.959925660705366,30.872244268603048
0.884,11.998008953531084,30.935656283940695
0.886,12.036265448296867,30.998307079396348
0.888,12.074674763535842,31.060248399796603
0.89,12.113196609732807,31.12154404706568
0.892,12.151805153134921,31.182262573425888
0.894,12.190439236689622,31.242459313994637
0.896,12.229088161845157,31.302172955502837
0.898,12.267709870988819,31.361468870504215
0.9,12.306299117949074,31.42046235307052
0.902,12.34478384640067,31.479123338225556
0.904,12.383166146650725,31.53757650594085
0.906,12.421420232739669,31.59584476228393
0.908,12.459480312960109,31.653964239531856
0.91,12.497382147161023,31.711995559773865
0.912,12.535056541393828,31.769964224217343
0.914,12.572497110800189,31.827924899440493
0.916,12.609685279054098,31.885864824789074
0.918,12.646600937304955,31.943833957889982
0.92,12.683218637039726,32.00184588755356
