Time [s],Flexion(-)/extension(+),Radial(+)/ulnar(-) deviation
0.0,27.52972619599375,-13.163815981974116
0.002,27.52922452940269,-13.163453722967331
0.004,27.528991720924072,-13.163322740383906
0.006,27.52875750302856,-13.16316046852351
0.008,27.52848911727178,-13.163015159169323
0.01,27.528236084615894,-13.162850566401149
0.012,27.52790887114605,-13.162700638914586
0.014,27.527633744610213,-13.16251729719909
0.016,27.527302876921357,-13.162348276241495
0.018,27.526958245432102,-13.162168715809573
0.02,27.526625670778195,-13.162001146787404
0.022,27.52623730128977,-13.161813634662098
0.024,27.525811734585297,-13.161642893283537
0.026,27.525424165364793,-13.161458023614609
0.028,27.524997231074188,-13.161267673176814
0.03,27.524528789190843,-13.161124621179974
0.032,27.524038168841408,-13.160952420292984
0.034,27.523532974812564,-13.160808778113008
0.036,27.523032098226192,-13.160648589080298
0.038,27.52248943481906,-13.160529703940693
0.04,27.521927983738067,-13.160394179224827
0.042,27.52132734168498,-13.16030482271163
0.044,27.52071860716498,-13.160238156552198
0.046,27.52009213191306,-13.160166428713199
0.048,27.519428068931617,-13.160114591302944
0.05,27.518770653744262,-13.160084365430787
0.052,27.518074880854122,-13.160078105061872
0.054,27.51732402509783,-13.160101155289206
0.056,27.516534668197,-13.160130585151453
0.058,27.51577152170907,-13.160170583319344
0.06,27.514951763814967,-13.160257723513984
0.062,27.514128729391107,-13.16035040200103
0.064,27.513205365148142,-13.160490822250438
0.066,27.512307968213516,-13.160635931963087
0.068,27.51137638621115,-13.160782068559858
0.07,27.5103863779707,-13.160971284693334
0.072,27.509368993070478,-13.161182604626696
0.074,27.508336842610728,-13.16139537921608
0.076,27.507280702307977,-13.161608727109359
0.078,27.50617486550136,-13.161852565971929
0.08,27.50503546630949,-13.162097498588835
0.082,27.50384296391306,-13.162370221022439
0.084,27.502626752419516,-13.16264207925496
0.086,27.501409301654167,-13.162919689583504
0.088,27.50010483838951,-13.163246989116011
0.09,27.49880809195899,-13.16356682994162
0.092,27.497485218435813,-13.163884117789308
0.094,27.496107560782455,-13.164215816552664
0.096,27.49471380078326,-13.164562619173143
0.098,27.493271100101147,-13.164925831436744
0.1,27.491839686829454,-13.165299151496582
0.102,27.490380229307423,-13.16568130680563
0.104,27.48888401163791,-13.166068763905665
0.106,27.487405298313476,-13.166483195830429
0.108,27.485841956009185,-13.166931523583916
0.11,27.48431292294774,-13.167369851682286
0.112,27.482760324824174,-13.167839103540386
0.114,27.481212367444336,-13.16831301451231
0.116,27.47964898874489,-13.168827574056508
0.118,27.47808038451096,-13.169354988730994
0.12,27.47649703415335,-13.169906488413426
0.122,27.474932007825025,-13.170486390207058
0.124,27.473401909035925,-13.171069181552372
0.126,27.471834539102648,-13.171708232627303
0.128,27.47030401317355,-13.172356245988288
0.13,27.46876560788765,-13.173048092131657
0.132,27.467255318923808,-13.173751030741808
0.134,27.46579227487986,-13.174457633696598
0.136,27.464284696433108,-13.175230647580054
0.138,27.46282865844551,-13.176008691574532
0.14,27.461444434669968,-13.176780757918916
0.142,27.460032140167673,-13.177615199968551
0.144,27.458676920257847,-13.178460946229478
0.146,27.45733000549764,-13.179330906899107
0.148,27.45601212670489,-13.180204953943047
0.15,27.454748476884237,-13.181096284104502
0.152,27.453514517532533,-13.181984791186192
0.154,27.452323359950753,-13.182912165703081
0.156,27.451197435118075,-13.183830901093891
0.158,27.450066582788953,-13.184747754574408
0.16,27.448995540572632,-13.185668097725923
0.162,27.447986359237525,-13.186584760325111
0.164,27.44693944707801,-13.187505042716442
0.166,27.44598549777859,-13.188423199339397
0.168,27.44509567171919,-13.189317473963886
0.17,27.444182681921962,-13.190221056112131
0.172,27.44335495835662,-13.191080198971001
0.174,27.442527018113527,-13.191932781032488
0.176,27.44176512725307,-13.192760319915534
0.178,27.441008987597982,-13.193571701940796
0.18,27.44029773839157,-13.194366654511771
0.182,27.439610257990875,-13.195110192595731
0.184,27.438943936588267,-13.19583110140188
0.186,27.438357584638137,-13.196514269581291
0.188,27.437743882168594,-13.197159691442888
0.19,27.437147400112366,-13.197791517602479
0.192,27.436555151375664,-13.198373953904891
0.194,27.436005783755533,-13.19891560085471
0.196,27.43544951412914,-13.199414828015327
0.198,27.434914537321124,-13.199875675746647
0.2,27.43435654369899,-13.20028119324045
0.202,27.4338445321444,-13.200667727702044
0.204,27.433284137642527,-13.201000770092888
0.206,27.432707475824866,-13.20130867400239
0.208,27.432104887587244,-13.20157925452853
0.21,27.431540123548995,-13.201790108819768
0.212,27.43092343457978,-13.201956666699928
0.214,27.430301822825115,-13.202109772312937
0.216,27.42963623982078,-13.202230605954693
0.218,27.428956778183306,-13.202298368971087
0.22,27.428237861655067,-13.202342083170304
0.222,27.427527441964088,-13.202349623522759
0.224,27.426760592626085,-13.202335178635147
0.226,27.425964048615267,-13.202286941062901
0.228,27.425148255174907,-13.202212157541801
0.23,27.424298022307237,-13.202106040197338
0.232,27.423426881963366,-13.201975345601598
0.234,27.422534690118077,-13.201810310968922
0.236,27.421606919022974,-13.201620613386282
0.238,27.42067106895976,-13.201399969560958
0.24,27.419701240364617,-13.201172683855296
0.242,27.418720238172764,-13.200919948631329
0.244,27.41775774191447,-13.200620931494962
0.246,27.416789048240226,-13.2002966753779
0.248,27.41582737334799,-13.19996741545336
0.25,27.414858772090344,-13.199590217434563
0.252,27.413889837319065,-13.199205774439278
0.254,27.412979017800026,-13.198794645080257
0.256,27.412088441000915,-13.19833106389631
0.258,27.411242400149323,-13.197859487066596
0.26,27.410380181589716,-13.197362493758654
0.262,27.40958860536475,-13.196845801577597
0.264,27.408830275780083,-13.196289674211448
0.266,27.408125808849384,-13.195727931684047
0.268,27.407468068505334,-13.195135617962341
0.27,27.406867778443818,-13.194511101306874
0.272,27.406311210971655,-13.193873838344325
0.274,27.405834566632922,-13.193203589654923
0.276,27.405391636752096,-13.192534882215055
0.278,27.405019641687424,-13.191836201672762
0.28,27.4047450400688,-13.191122516828273
0.282,27.404483696544528,-13.190410330687191
0.284,27.40432159304826,-13.18968143160827
0.286,27.40419519344229,-13.188938113579418
0.288,27.404123498506713,-13.188189917624271
0.29,27.40413054351578,-13.187441210435395
0.292,27.404153120439435,-13.186692944783678
0.294,27.404251805579186,-13.1859386628571
0.296,27.404388450266495,-13.185210872071803
0.298,27.40457810313829,-13.184468905542255
0.3,27.404796988910753,-13.18374190890971
0.302,27.405066099373602,-13.183026195792479
0.304,27.405391782207953,-13.182297002776785
0.306,27.40572784768501,-13.181584915450335
0.308,27.406112282894213,-13.180884375519334
0.31,27.406542028178407,-13.180176734821002
0.312,27.406977632794774,-13.1795054248883
0.314,27.407465938432114,-13.178807431712409
0.316,27.407940612434206,-13.178132999474679
0.318,27.408465032222356,-13.177443052566508
0.32,27.4090536326559,-13.176734270354434
0.322,27.409643346589508,-13.176029406671082
0.324,27.41024285204861,-13.175309371526488
0.326,27.41085561081959,-13.174580698709121
0.328,27.411520792110462,-13.173780810931696
0.33,27.412242966079617,-13.17298120450891
0.332,27.41293705543787,-13.17212519595236
0.334,27.413721907521307,-13.17121571969256
0.336,27.414516279184035,-13.170233473618884
0.338,27.41534071367137,-13.169216566439488
0.34,27.416183866776137,-13.168107826404945
0.342,27.41707335304448,-13.166917183201438
0.344,27.41797688008351,-13.165652642864327
0.346,27.418950093579866,-13.164273872853837
0.348,27.41993727817031,-13.16279163943486
0.35,27.420971356962188,-13.161201797641201
0.352,27.422011511684644,-13.159511849621126
0.354,27.423081706795273,-13.157710974420167
0.356,27.424179026130094,-13.15579336036831
0.358,27.4252925671267,-13.153746417766207
0.36,27.426446163196278,-13.151570906817792
0.362,27.427565749211936,-13.14929818020273
0.364,27.428721766374753,-13.146906745284637
0.366,27.42984629167134,-13.14439193736891
0.368,27.43100771847118,-13.141792232623981
0.37,27.43210572942515,-13.13907604373384
0.372,27.43317540240301,-13.136284889145315
0.374,27.434227876388448,-13.133424094599679
0.376,27.4352470813342,-13.1304586307087
0.378,27.436151069903318,-13.127468079147546
0.38,27.437000457076422,-13.124424189384087
0.382,27.437825844865916,-13.12135372498009
0.384,27.43851560544795,-13.118270956023137
0.386,27.439104814621967,-13.115197796825173
0.388,27.439620233552212,-13.112122457468594
0.39,27.440013226637973,-13.10909803071349
0.392,27.440266086192636,-13.106132227275793
0.394,27.440409773889595,-13.10324110119674
0.396,27.440389209462264,-13.10044417585843
0.398,27.440259971973,-13.097735113377261
0.4,27.439963561060175,-13.095160231247734
0.402,27.439548705099284,-13.092728002518438
0.404,27.439001605549606,-13.090423548363779
0.406,27.43828113429783,-13.088287694438915
0.408,27.437386252291237,-13.086349932673965
0.41,27.436423272085356,-13.084577257236965
0.412,27.435290630954718,-13.083013708012903
0.414,27.433985054147136,-13.081652950156585
0.416,27.432586884957832,-13.080498361143343
0.418,27.431104518824583,-13.079530234367118
0.42,27.42944710419174,-13.078827108206944
0.422,27.427683540786997,-13.078306356093675
0.424,27.425836499157526,-13.077993711936235
0.426,27.423925047811423,-13.077905001058191
0.428,27.4219213027782,-13.077994344700262
0.43,27.419820503285322,-13.078296279039899
0.432,27.417674594715713,-13.078776830359722
0.434,27.415454859247628,-13.079450189822168
0.436,27.413202727662156,-13.080296098422664
0.438,27.41090171237821,-13.081272781196546
0.44,27.408580427571547,-13.082421486031574
0.442,27.40621881995934,-13.083662577002098
0.444,27.40387590060013,-13.08504589710426
0.446,27.401480454159156,-13.086526311977833
0.448,27.39908845909424,-13.088056842836469
0.45,27.396725058903833,-13.08968709667868
0.452,27.39431606288788,-13.091377712502654
0.454,27.391936482844724,-13.093096160707573
0.456,27.389585860700194,-13.094833046712447
0.458,27.3872346548557,-13.096571856267575
0.46,27.38489543804309,-13.09833096556314
0.462,27.382521512904216,-13.100089862192485
0.464,27.380207086682912,-13.101803806197472
0.466,27.377888874034376,-13.103490384779136
0.468,27.375581341555872,-13.105114023506012
0.47,27.373277166331427,-13.106704896099092
0.472,27.370997621179427,-13.108231905301423
0.474,27.368718217048592,-13.109665976325523
0.476,27.366439557386837,-13.111057271899693
0.478,27.364174649938544,-13.112356271002744
0.48,27.361921557354073,-13.113604049009266
0.482,27.359667007190428,-13.11473842850241
0.484,27.357460184724335,-13.115778454113553
0.486,27.35518936953084,-13.11677634180837
0.488,27.35296748572815,-13.1176909903494
0.49,27.350774448015883,-13.11850180439491
0.492,27.348576087087583,-13.119275941602252
0.494,27.346414883268682,-13.119959912424713
0.496,27.344262491092717,-13.12061291926425
0.498,27.342101623395475,-13.12121352320991
0.5,27.34002022410204,-13.121736476267825
0.502,27.33797448010051,-13.122238638730213
0.504,27.335937991412816,-13.12272363362241
0.506,27.33395982741738,-13.12318200525715
0.508,27.332038894953865,-13.12363614515869
0.51,27.330155461245546,-13.124092729539043
0.512,27.328338257683765,-13.124568088845818
0.514,27.326598472036817,-13.12507038133111
0.516,27.324929065428034,-13.125582031281699
0.518,27.323346314019776,-13.126135621826352
0.52,27.32186863368623,-13.126740628832525
0.522,27.320461534540524,-13.127420362659795
0.524,27.319182596726677,-13.128146113397058
0.526,27.31799366353514,-13.128959361402806
0.528,27.31690041196647,-13.129863580857974
0.53,27.315995428887817,-13.130824274929928
0.532,27.31517275527247,-13.131884761146011
0.534,27.31449122799323,-13.133058605318638
0.536,27.313948047912042,-13.134322822698218
0.538,27.313518209401117,-13.135687075535332
0.54,27.31324287828815,-13.137162121896898
0.542,27.313148947702743,-13.13876225863574
0.544,27.313175685701406,-13.140456669068435
0.546,27.313334951808812,-13.142240426073965
0.548,27.313653663388976,-13.14415880590336
0.55,27.314123551816067,-13.146158339263568
0.552,27.314719133831463,-13.148260460256868
0.554,27.315496248278496,-13.15043708892315
0.556,27.31636824341114,-13.152722209885052
0.558,27.317419180083103,-13.155060771545983
0.56,27.31857812041646,-13.15748424164943
0.562,27.3199229154213,-13.15993715118914
0.564,27.321331021327108,-13.16246639662627
0.566,27.32293095305584,-13.165022612789468
0.568,27.324576198368472,-13.167607999145215
0.57,27.326386829790113,-13.170211376002479
0.572,27.328289739585138,-13.172816772582234
0.574,27.330337628734608,-13.175399271345162
0.576,27.332474357818974,-13.177989583345518
0.578,27.334697095841918,-13.180526522004852
0.58,27.337011202523176,-13.183025480131398
0.582,27.339463599631927,-13.185455028564702
0.584,27.342025882843604,-13.187846251315614
0.586,27.344690336032517,-13.190152539850567
0.588,27.34740769325388,-13.19240901470657
0.59,27.350312818096853,-13.19454545679605
0.592,27.35336865773975,-13.196591846276304
0.594,27.356481044877984,-13.19857806640728
0.596,27.359854500742237,-13.200434584871022
0.598,27.363345163929207,-13.202204072548861
0.6,27.36702749241877,-13.203895821196477
0.602,27.370977997048023,-13.205468862635335
0.604,27.375169685314653,-13.206965353998097
0.606,27.37964603632054,-13.208394970311376
0.608,27.384436629680355,-13.209731959370416
0.61,27.38962090527184,-13.211018988742556
0.612,27.395165798384873,-13.212277033466748
0.614,27.401190674635117,-13.213502774657533
0.616,27.407727478256408,-13.214692157234182
0.618,27.414786802661112,-13.215919050100222
0.62,27.422461074554256,-13.217150432104834
0.622,27.430772389106853,-13.218458327782823
0.624,27.439733258639365,-13.219853856843562
0.626,27.44953404901109,-13.221313118515065
0.628,27.46006267162718,-13.222933664271231
0.63,27.471455223924547,-13.224688242558209
0.632,27.48370856256352,-13.226656393425158
0.634,27.496943127053434,-13.228812139968245
0.636,27.51106132920331,-13.231229223821424
0.638,27.526188213079983,-13.233920541104409
0.64,27.54232611748591,-13.236908621941172
0.642,27.559481042891075,-13.24022181954559
0.644,27.577624524210048,-13.243882260094384
0.646,27.59678024688988,-13.24794437910472
0.648,27.616930254550464,-13.25240541129808
0.65,27.63803516956084,-13.257296122230795
0.652,27.660130102347814,-13.26263562815397
0.654,27.68305059395568,-13.268450457798112
0.656,27.70685304356171,-13.274747386915148
0.658,27.731417487262345,-13.281562851288802
0.66,27.756675865580366,-13.288874880395486
0.662,27.78257872332982,-13.29671323020306
0.664,27.838163120365035,-13.313922688668633
0.666,27.865354843423546,-13.32335052021525
0.668,27.892732726661535,-13.33334654474828
0.67,27.92028192072064,-13.343821420323152
0.672,27.94782001680347,-13.354817853684768
0.674,27.9753080085981,-13.366290265069244
0.676,28.002529731783437,-13.37826403870193
0.678,28.029479762892834,-13.390673350283631
0.68,28.055987476812025,-13.403514644189944
0.682,28.081981974243355,-13.416743449703144
0.684,28.10735454765595,-13.430346355041072
0.686,28.13201008653373,-13.444271067843854
0.688,28.155888243408796,-13.458470587002932
0.69,28.178812511033907,-13.47292599534178
0.692,28.200838264091825,-13.48755189013037
0.694,28.22179640894176,-13.502331961179658
0.696,28.241692977970178,-13.517183218580161
0.698,28.260415106262684,-13.532070473636722
0.7,28.277990247021005,-13.546913212992285
0.702,28.2943206473815,-13.561673873973799
0.704,28.3094355136039,-13.576265615469845
0.706,28.323284177902057,-13.59065290395339
0.708,28.335879625112792,-13.60475293801126
0.71,28.34719524115974,-13.618498044646868
0.712,28.35727231893187,-13.631832088874328
0.714,28.366074532453442,-13.644708377682436
0.716,28.373696422852802,-13.657023395690318
0.718,28.38005324119343,-13.668791791923576
0.72,28.385305986545845,-13.679877179742236
0.722,28.389392002482683,-13.690281473523095
0.724,28.392386761438665,-13.699928824252014
0.726,28.39432278822978,-13.70878872311257
0.728,28.395216290078004,-13.716806985207043
0.73,28.395158495778063,-13.723957028548828
0.732,28.39413906119387,-13.730225873627262
0.734,28.392273873896713,-13.735519345166509
0.736,28.389518691895077,-13.739889064340725
0.738,28.385957909401544,-13.743305178529427
0.74,28.381676197747645,-13.745722291407944
0.742,28.37660813321151,-13.747156581064727
0.744,28.370860371318162,-13.747602986656961
0.746,28.364462562138822,-13.74705669840477
0.748,28.357389047813417,-13.745535963994467
0.75,28.349754426297505,-13.743033216457388
0.752,28.343378125451455,-13.737036496418444
0.754,28.334838113234785,-13.733334527909262
0.756,28.32568642239622,-13.728738668548312
0.758,28.315979520639534,-13.723225189193235
0.76,28.305756240525735,-13.716828731126181
0.762,28.295006444858053,-13.709538795567878
0.764,28.283748972216422,-13.70142558218424
0.766,28.271933048011785,-13.692530604497472
0.768,28.25962279223893,-13.68285159964034
0.77,28.246792174799687,-13.672419595377766
0.772,28.233423665145125,-13.661276065328241
0.774,28.2195571694578,-13.649459946830197
0.776,28.20514042612363,-13.636998912316718
0.778,28.190202115711045,-13.62392171010432
0.78,28.174675266472384,-13.610297210774936
0.782,28.158582928419378,-13.596148523062867
0.784,28.14195646210517,-13.581493206017845
0.786,28.124692134224492,-13.566387198527657
0.788,28.106879277861257,-13.550869609161348
0.79,28.088473484654426,-13.53495362785499
0.792,28.069427805020766,-13.518716525818904
0.794,28.049775202477385,-13.502196539300263
0.796,28.029535563131727,-13.485414216301951
0.798,28.008654676410796,-13.468429834036035
0.8,27.98722581377282,-13.451264346820444
0.802,27.965171490185227,-13.43397422286608
0.804,27.94251220587281,-13.416602317009653
0.806,27.919326704441236,-13.39917988151978
0.808,27.895548595498447,-13.381767006072375
0.81,27.871205451300785,-13.3644031779014
0.812,27.84636141273201,-13.347114123077832
0.814,27.82101228421249,-13.329966287085737
0.816,27.795174977518165,-13.3129871479258
0.818,27.768898652019846,-13.296234664404897
0.82,27.74222927955678,-13.279723511031962
0.822,27.715150608288408,-13.263518998235318
0.824,27.687753552317606,-13.247634253352786
0.826,27.66001952432986,-13.232165679585638
0.828,27.632054679343966,-13.217087207550378
0.83,27.60385840030739,-13.202470473884313
0.832,27.575498223835258,-13.188303511177015
0.834,27.546972832252248,-13.17468704058936
0.836,27.51836697263483,-13.161596799549047
0.838,27.489728588432115,-13.149097188558354
0.84,27.461037629592468,-13.13717964851091
0.842,27.432437011914644,-13.12586492709962
0.844,27.40386426027215,-13.115211846940285
0.846,27.375438037586775,-13.105184937898317
0.848,27.347179674085794,-13.095823968387595
0.85,27.319077754616924,-13.087140266952401
0.852,27.291196982955938,-13.079139283669887
0.854,27.263606702261885,-13.071784375750124
0.856,27.236285953122845,-13.065114108568514
0.858,27.20924735291697,-13.059125759215137
0.86,27.182534395361447,-13.053815346326056
0.862,27.156181902139313,-13.049151758758644
0.864,27.130160072677945,-13.045158026500514
0.866,27.10446055957545,-13.041816493617981
0.868,27.0791935067784,-13.039071334444172
0.87,27.054291096491276,-13.03695602956573
0.872,27.029725499726634,-13.035455702358277
0.874,27.00558722900488,-13.034529888227079
0.876,26.98181128815608,-13.034164205365922
0.878,26.958362198761805,-13.03437314939137
0.88,26.935277447086094,-13.035119286314561
0.882,26.912553478045506,-13.03639650586354
0.884,26.890163248280047,-13.038174043880169
0.886,26.868112525233233,-13.040471614651224
0.888,26.84631600266696,-13.043241016266617
0.89,26.824866074208394,-13.04649510791809
0.892,26.80368651358251,-13.05022165869141
0.894,26.7827756355011,-13.054405745071993
0.896,26.762103748641138,-13.059048809179407
0.898,26.741725986477697,-13.06412463898773
0.9,26.72157252139352,-13.069629930239842
