Time [s],Flexion(-)/extension(+),Abduction(+)/adduction(-),Internal(-)/external(+) rotation
0.0,7.217738979168221,1.1994217255106827,4.928471557952362
0.002,7.218241601046544,1.1990338707022643,4.928480062500885
0.004,7.2187238833760015,1.198600497736126,4.928491549089021
0.006,7.219261130016127,1.1981636997617602,4.928471884246934
0.008,7.2198432905989325,1.197709274217049,4.92846738105035
0.01,7.220457703730394,1.1972147078271402,4.928478214420823
0.012,7.221078321343562,1.1966935145238717,4.928518514572752
0.014,7.22176778154402,1.1961279912936351,4.9285321541308384
0.016,7.222484861172665,1.1955370832415582,4.928563881347102
0.018,7.223198864420192,1.1949264172463179,4.9285934987424005
0.02,7.223992959226707,1.194292120108487,4.928615393119405
0.022,7.224836515655207,1.193622144037804,4.928664861719142
0.024,7.225677925799246,1.192912621241532,4.928727138269905
0.026,7.226594929382005,1.1921631084406186,4.928782833161417
0.028,7.227514171751925,1.1914057673925886,4.928841632470311
0.03,7.228521686753354,1.1905904632036566,4.92893918567744
0.032,7.229507785033752,1.1897668810005222,4.929009942458006
0.034,7.230540596790532,1.1889109253513366,4.929098420618352
0.036,7.231608216362539,1.1880310331192658,4.929217718924945
0.038,7.232687936776141,1.1871118632981392,4.929309511058556
0.04,7.233811146575423,1.1861887623189231,4.929414083914262
0.042,7.23493966150969,1.1852399506465767,4.929532454259909
0.044,7.236120005060703,1.1842674229490167,4.92965591776253
0.046,7.237300749448008,1.1833033276817098,4.929781417961356
0.048,7.23851981572694,1.1823037017227227,4.929892342566909
0.05,7.239698735719864,1.1812950806675544,4.930025174665389
0.052,7.240905867830421,1.1802723249245317,4.9301403501794985
0.054,7.242149997584315,1.1792469875053337,4.930266232834826
0.056,7.243387394879858,1.1781817104112413,4.9303897064874445
0.058,7.244662264375604,1.1771282170497859,4.930503546056512
0.06,7.245932844791764,1.1760598527572588,4.930612864833857
0.062,7.2471857343965445,1.1750151387136938,4.930703904294725
0.064,7.2484783330488565,1.1739359177737854,4.930820091134026
0.066,7.249728671297649,1.1728772033824675,4.930906051134997
0.068,7.250999872067117,1.1718148111207694,4.930971169044557
0.07,7.25225317728595,1.1707590003551782,4.93101285935656
0.072,7.2535482346295534,1.1696866121594114,4.931065195163188
0.074,7.254780987336204,1.1686245695081598,4.931085824246796
0.076,7.2560310419698055,1.1675569929779672,4.931088225923244
0.078,7.257318568103239,1.166480827840389,4.9311029783331435
0.08,7.258562871916294,1.1654259818613373,4.9310727036156905
0.082,7.25981101465369,1.1643347022092045,4.931015275650681
0.084,7.261076911871631,1.1632445175394601,4.930941411865928
0.086,7.262302333888639,1.162171805646995,4.930806861659203
0.088,7.263550688185294,1.1610665532471434,4.930707136284662
0.09,7.264800037638458,1.1599560885318585,4.930564929586082
0.092,7.266040862323703,1.1588144819103976,4.930391623503389
0.094,7.2672590553901575,1.1577197249443067,4.930183339612427
0.096,7.268492070087807,1.1565659731119295,4.929955399804239
0.098,7.269680874101619,1.1554293816236894,4.929671065055363
0.1,7.27090259549604,1.1542649398903149,4.929399292956985
0.102,7.272136550042379,1.1530888388758669,4.9290995934568205
0.104,7.273319473194632,1.1518854302516595,4.92874025328772
0.106,7.2745314534946095,1.1506946635895356,4.9283854547756265
0.108,7.275713652559745,1.1494684428494302,4.927973109132138
0.11,7.276913178508582,1.148226520113075,4.927566248128687
0.112,7.278095842919302,1.1469771102757322,4.927113730492266
0.114,7.279283669082178,1.145702215930127,4.9266785153235535
0.116,7.280438908351085,1.144429833676382,4.926178235975613
0.118,7.281618478055687,1.1431466874449714,4.9256630880455985
0.12,7.282776981317512,1.1418139610137785,4.925154800511907
0.122,7.283926843980621,1.1405065366890177,4.924600636690089
0.124,7.285063085419498,1.1391698802731272,4.924037270098692
0.126,7.286218193199166,1.1378110379812172,4.923484598037378
0.128,7.287346527323276,1.1364623527416438,4.922886531505855
0.13,7.28849045636339,1.1351014003065343,4.922274832160624
0.132,7.28963927330412,1.133698722598816,4.921706974970115
0.134,7.290756825813138,1.1323284304404757,4.921066243315368
0.136,7.291885945590644,1.1309209922274768,4.92046753348542
0.138,7.293006287223983,1.1295063972748742,4.919854987736421
0.14,7.294137985453098,1.1280954489043933,4.91923598844307
0.142,7.295239390428694,1.1266704786962676,4.918595122980946
0.144,7.296339426522934,1.1252207618614476,4.917978741659808
0.146,7.297444583895549,1.1237739179750268,4.917362920080191
0.148,7.298554396471639,1.122325579307855,4.916708735715457
0.15,7.29964658277129,1.1208517027001192,4.916076669359082
0.152,7.30073754249042,1.1194226877205122,4.9154258622976625
0.154,7.301825939452198,1.1179241696164135,4.91479753190128
0.156,7.302894933645087,1.1164314389336392,4.914127176960401
0.158,7.303965964896615,1.1149524083206097,4.913489369001905
0.16,7.30502348764655,1.1134475791354421,4.9128014890544565
0.162,7.306048417455696,1.1119555595133004,4.912102306408487
0.164,7.3071231888467905,1.1103943520869783,4.911454948295881
0.166,7.30815490251513,1.1088604847497217,4.910728322064741
0.168,7.309184937244874,1.1073248065569299,4.909977501154559
0.17,7.310193221685905,1.1057804788735819,4.909251608666512
0.172,7.311204353131369,1.1042210554143983,4.908520213776908
0.174,7.312168335523698,1.102657524431383,4.907711083132361
0.176,7.313119616612897,1.1010756981921668,4.9069182940608025
0.178,7.3140684581387765,1.0994957669094383,4.9061086094405
0.18,7.3149637715737255,1.0979100401074138,4.905263964503719
0.182,7.315867227828494,1.0963103829354548,4.9044407334338045
0.184,7.316749273325579,1.094731476123397,4.903550586022448
0.186,7.317576541932988,1.093127048486963,4.902658565426978
0.188,7.318395603350555,1.0915373175487733,4.9017382358737684
0.19,7.3191982876992165,1.0899296156424874,4.900841682879445
0.192,7.319968436304113,1.0883620262314209,4.899885895778314
0.194,7.320692983337508,1.0867797096752272,4.8989254833259865
0.196,7.321405165732038,1.085179491937869,4.897975034445957
0.198,7.322050785143231,1.08360618961095,4.897016718726111
0.2,7.322659771922149,1.0820407319741066,4.896040484151141
0.202,7.323239022098059,1.0804800481250771,4.895043123440393
0.204,7.323788114110432,1.0788939110662208,4.894080428645904
0.206,7.3242780874319395,1.0773786109093377,4.893043734062545
0.208,7.3247522910642076,1.0758188593732827,4.892055305549405
0.21,7.325172120413453,1.0742805078133006,4.891055333431458
0.212,7.325560365322785,1.0727475890833071,4.890049220428402
0.214,7.325888575484167,1.0712105764511244,4.8890346228012875
0.216,7.326173006707586,1.069685708850331,4.888020998430868
0.218,7.326420125692729,1.0681712405051704,4.88697882495711
0.22,7.326609253075911,1.0666467833877125,4.885964651132825
0.222,7.3267671288854475,1.0651438495100096,4.884911773066856
0.224,7.326864468211495,1.063610331978425,4.883860208658611
0.226,7.326929625069112,1.0620970373860565,4.8827934332844265
0.228,7.3269533700162475,1.0605776212125084,4.8816957976597815
0.23,7.326926823352183,1.0590488377039307,4.880598030381341
0.232,7.326836582734235,1.0575382423854776,4.879437846980962
0.234,7.326748458295851,1.0560196782362448,4.8782659409322795
0.236,7.326575673951646,1.054486905703905,4.877058491061963
0.238,7.326380894477693,1.0529362059641156,4.875808034631527
0.24,7.326151791045221,1.0513803611435504,4.874516971844972
0.242,7.325892736370408,1.049829762567243,4.873159398398807
0.244,7.32560195761837,1.048267273915829,4.871753341853833
0.246,7.325279094176188,1.046720202859851,4.870268218459151
0.248,7.324917664581465,1.045158626211703,4.868708154192802
0.25,7.324547335348039,1.0435799475617593,4.86706040033186
0.252,7.32414568203578,1.0419889137610543,4.865353215876079
0.254,7.32370743654562,1.0404052753069413,4.86351431023869
0.256,7.3232747413162045,1.038828354731072,4.861572138857485
0.258,7.322807893524376,1.0372178940213812,4.859538512812059
0.26,7.3223489300358375,1.0356418931805638,4.8573692845205425
0.262,7.321878591559792,1.0340494287837965,4.85509592132677
0.264,7.321373504713184,1.0324419151626172,4.852682891638491
0.266,7.3209167911693305,1.0308495122319867,4.850122601943771
0.268,7.320418792355847,1.0292271548637046,4.84745073986106
0.27,7.319949738302855,1.0276146925167822,4.844597126741619
0.272,7.319448365093683,1.0260010703875169,4.841640251847437
0.274,7.3189881385789,1.0243902206294329,4.838498128691979
0.276,7.318517787237622,1.022775584414337,4.835212933480041
0.278,7.318063036974275,1.0211532065863311,4.831782177280971
0.28,7.317624112251921,1.0195355981323317,4.828183669254619
0.282,7.317198071286191,1.0179154133109851,4.824430293655791
0.284,7.316806957036462,1.016254425426124,4.8205595503075
0.286,7.316382934710896,1.0146349256034326,4.816495641265932
0.288,7.315987696433719,1.0129602367578792,4.812317831979469
0.29,7.315626813448792,1.0113262841658874,4.807978444527771
0.292,7.315289988141906,1.0096556643962455,4.803509321690714
0.294,7.31493678508432,1.0079664928827,4.79893457285526
0.296,7.314643680510254,1.006278891178233,4.794214243906589
0.298,7.314323027883074,1.0045737187622006,4.789393176064523
0.3,7.314053518216874,1.002843372748001,4.784462126550902
0.302,7.313801337037974,1.0011141034196671,4.779446198032681
0.304,7.313543723421547,0.9993581808868041,4.774337610588092
0.306,7.3133099912973245,0.9975910966004361,4.76915312848418
0.308,7.313129875490294,0.9957767124941757,4.763933328662649
0.31,7.312918464135271,0.9939439322219319,4.758635112547714
0.312,7.312750405003795,0.9921030373302362,4.753332152395487
0.314,7.312589234988893,0.9902309477214437,4.747997011868942
0.316,7.312478948978429,0.9883385800591993,4.742642185249142
0.318,7.3123694134147845,0.9864138710711053,4.737300735807861
0.32,7.312259507655257,0.9844535618408974,4.73196127597915
0.322,7.312206461332272,0.982492061750822,4.726674203425516
0.324,7.312190944283283,0.9804667229203826,4.721436642289052
0.326,7.312170029946838,0.9784185874778955,4.716251002292053
0.328,7.312201777080071,0.9763624111043354,4.711131612515053
0.33,7.3122506019793425,0.9742551708553944,4.706074213797997
0.332,7.312345538984886,0.9721165415330064,4.701174319243318
0.334,7.31245803971577,0.9699848446078413,4.69633971126481
0.336,7.312597972328697,0.9678155626445802,4.691638985454805
0.338,7.31278915798742,0.9656058549996314,4.687070419624774
0.34,7.313031805438665,0.9634042033140786,4.6826439273255485
0.342,7.313265980482816,0.9611269221087352,4.678405309357227
0.344,7.31358041644102,0.9588933219473902,4.67426172848975
0.346,7.31389349819191,0.9566017261007731,4.670325284205042
0.348,7.314288036352558,0.9543282794207749,4.666549775188898
0.35,7.3147059800825724,0.9520540997610224,4.6629427454190004
0.352,7.315122075896072,0.9497766855916127,4.65951540879161
0.354,7.31560376516376,0.9474824756401049,4.6562648114050305
0.356,7.316097850875528,0.9452200239842538,4.653218868598547
0.358,7.316647855339085,0.9429488225071315,4.650323876974718
0.36,7.31722957463176,0.94070421494008,4.647591307215136
0.362,7.317794274546856,0.9384369236215433,4.645082407651194
0.364,7.318429815666143,0.9362066137475743,4.642724234789494
0.366,7.319076831864424,0.9340189746635166,4.640520711778627
0.368,7.319755617373126,0.9318214694591944,4.638497607180527
0.37,7.32041139741915,0.9296558263401816,4.636595254360568
0.372,7.321129429541156,0.9275333634537504,4.634899330075829
0.374,7.321829412166385,0.9254311788440511,4.633296275646293
0.376,7.3225495380895715,0.9233404258325159,4.631840381318458
0.378,7.323269433929784,0.9212971034948356,4.630534790098296
0.38,7.324000692349894,0.9192901815121924,4.629318749017409
0.382,7.324749813431873,0.9173062928596634,4.628226159089159
0.384,7.325491266192898,0.9153447724198127,4.627224616928131
0.386,7.3262454015447025,0.9134298131488183,4.626314456759643
0.388,7.326976464980428,0.9115192021707751,4.625510569034778
0.39,7.327750264175056,0.9096929187690638,4.624730353154626
0.392,7.328466848759973,0.9078285691677728,4.624047595979733
0.394,7.329223325856197,0.9060276951069963,4.623415237161584
0.396,7.329990192549944,0.9042195544518259,4.622819888939368
0.398,7.330743626235249,0.9024460187370655,4.622289278486248
0.4,7.331527692029539,0.9006961364782209,4.62178535783578
0.402,7.332273877675468,0.8989422515757708,4.621290272805875
0.404,7.333073566044956,0.8972416447336669,4.620815799752656
0.406,7.333832271346236,0.8955215371717645,4.620328659779662
0.408,7.334662460410575,0.8938320005229191,4.61983397231163
0.41,7.335440493133797,0.8921361337518595,4.619334282308573
0.412,7.336277972488202,0.8904408071574699,4.618826058906169
0.414,7.337096944508414,0.8887744762506007,4.61824679690664
0.416,7.337934944517928,0.887118550503882,4.617630454267806
0.418,7.338831669546922,0.8854416492230157,4.6169745618328735
0.42,7.3397131641562865,0.8837456194133015,4.616288562503428
0.422,7.34063891033822,0.8820613156086641,4.615540475960271
0.424,7.34157812222641,0.8803830648505379,4.614685984104141
0.426,7.342542278014456,0.8787086875963576,4.613756768334561
0.428,7.3435502877838115,0.8770055127540887,4.6127617917289445
0.43,7.344542004118972,0.8753129886177313,4.611656649441259
0.432,7.345593686745034,0.8735869329784105,4.610458442420443
0.434,7.346682026539912,0.871878205965491,4.609151756702975
0.436,7.3477864794385805,0.8701407409952739,4.607777510531749
0.438,7.3489191213028775,0.8684084115311153,4.606222782607356
0.44,7.350082280158419,0.8666326783472732,4.60460559572023
0.442,7.3512729180595535,0.8648479172413293,4.602882653561743
0.444,7.3525064930846895,0.8630463897130085,4.6010236193242235
0.446,7.3537640154133275,0.8612415929834132,4.599030936703945
0.448,7.355043130516331,0.8593899255219255,4.596976674123284
0.45,7.356355257244448,0.8575408941247484,4.594777362302759
0.452,7.357692070000435,0.8556427438021439,4.592476895234986
0.454,7.359075550684924,0.8537254475451882,4.59004917680935
0.456,7.360469016892908,0.8517835183285432,4.587517592162657
0.458,7.361886212896498,0.8498216731074495,4.584904781293648
0.46,7.363346157944237,0.8477819702046083,4.582211032624635
0.462,7.36481221555901,0.8457544407398345,4.579398912886506
0.464,7.366322256964608,0.8436865772598677,4.576500709352852
0.466,7.367811151894154,0.841594800052614,4.573510752210977
0.468,7.369370770225339,0.8394181932581514,4.570503146673517
0.47,7.37094661232552,0.8372646870773435,4.567382532558049
0.472,7.3725486975214665,0.8350590826668904,4.564195937481244
0.474,7.374169374007879,0.8328326821620046,4.560969397815726
0.476,7.3757828372093,0.8305810975307721,4.557689102959264
0.478,7.377461834246482,0.8282895516334088,4.554355454019262
0.48,7.379143198560988,0.8259740164006587,4.551024813349994
0.482,7.380858810167172,0.8236682890704509,4.547614150008996
0.484,7.382590884591477,0.8213036017107207,4.5442011470240375
0.486,7.384355263706583,0.8189568525361454,4.540756205529876
0.488,7.386128070870134,0.8165564941410584,4.537322076263491
0.49,7.387946649231505,0.8141699427983905,4.533856753310305
0.492,7.3898033013417965,0.811777220866789,4.5303730899555745
0.494,7.391651501879951,0.8093853482708013,4.526897015791089
0.496,7.39353138782893,0.8069937838721519,4.52341566351612
0.498,7.395439093669329,0.8045962714834453,4.519918213747777
0.5,7.397377088393907,0.8022021484782903,4.516427120237821
0.502,7.399306482537244,0.7998333226984351,4.512944587160676
0.504,7.401309329496256,0.7974687303711029,4.509454623058416
0.506,7.403323705608132,0.7951207222347969,4.505958447540526
0.508,7.405347085826987,0.7927815449134695,4.50247997172931
0.51,7.407387439146261,0.7904665216467144,4.498999623211075
0.512,7.409485494890663,0.7881569056813035,4.49551776590856
0.514,7.411559390676093,0.785899526575099,4.491999243576885
0.516,7.413702162415888,0.7836472985420863,4.4884737114757325
0.518,7.415856682370411,0.7813968188546991,4.484984932676423
0.52,7.418018582202773,0.779182376363111,4.481436269598455
0.522,7.420218879965881,0.7769684359532328,4.477882854589239
0.524,7.422450224880774,0.7747755377492334,4.474326825055238
0.526,7.424687248109024,0.7726269755234739,4.470730689189942
0.528,7.426974592831025,0.7704525795335398,4.4670942610156965
0.53,7.429256117263619,0.7683324819562324,4.463455707976637
0.532,7.431563732076529,0.7661891344891042,4.459795272219619
0.534,7.4338970267458775,0.7640676798206427,4.456069871743157
0.536,7.436238153040981,0.7619371516648842,4.452358018075621
0.538,7.438581755953009,0.7598120150021004,4.448608353081028
0.54,7.440977397011568,0.7576899041631115,4.4448323969459524
0.542,7.443354974422771,0.7555671090454508,4.441033645672085
0.544,7.445771504144425,0.7534280359999813,4.437239603129471
0.546,7.448203020771243,0.7512859943692709,4.4334223177561825
0.548,7.450635972188566,0.7491323227155225,4.429583043359643
0.55,7.453053766980295,0.7469662845051106,4.425790919558328
0.552,7.4554790788019645,0.744771961243877,4.422010708469117
0.554,7.457926249188868,0.7425692739824112,4.4182661390505
0.556,7.46037041162133,0.7403332842127827,4.414573873198455
0.558,7.462776331714256,0.7380929112261331,4.410907975976239
0.56,7.465192188277569,0.7358352810486055,4.40730384501011
0.562,7.467611175715689,0.7335483414011752,4.403789601553598
0.564,7.469966035034322,0.7312290705929748,4.400360784318884
0.566,7.4723144654959714,0.7289153762370219,4.397044632401169
0.568,7.474644430784476,0.7266077117131704,4.393839907307658
0.57,7.476924119002816,0.7242693317912565,4.390728957648527
0.572,7.479166009537152,0.7219140581247816,4.387788155305998
0.574,7.481370648337585,0.7195300167811459,4.3849948181471134
0.576,7.483499589364987,0.7171759100478501,4.382324644205929
0.578,7.485573736526485,0.7147964701873254,4.3798403404273305
0.58,7.487596005195173,0.7124420984981286,4.377498133586357
0.582,7.489520664118111,0.710070312330483,4.375332568213809
0.584,7.49140724363921,0.7077106432766403,4.373318783388236
0.586,7.4932109462498895,0.7053574595795442,4.371490571778818
0.588,7.4949289276434214,0.702990579999041,4.369867455500956
0.59,7.496559814958101,0.7006656437020075,4.368372985900512
0.592,7.498086747755923,0.6983571575741176,4.3670185065260565
0.594,7.499576942163665,0.696062697008929,4.365861802670611
0.596,7.500928653794968,0.6937582036804834,4.364884722275491
0.598,7.502212238331124,0.691485807498927,4.364049065617009
0.6,7.503407117363585,0.689246816477365,4.363330014685794
0.602,7.504506952211739,0.6870102953381848,4.362777611153984
0.604,7.505511021946845,0.6848033743052927,4.362327785956045
0.606,7.506475719366823,0.6825758886458493,4.362055283883228
0.608,7.507305133450181,0.6803961979318309,4.361843495201094
0.61,7.508076609600445,0.6782485836734533,4.361736275080804
0.612,7.508803166112306,0.6760924853073313,4.361760610542565
0.614,7.50940006234437,0.6739353812606282,4.361879572792349
0.616,7.509978334509401,0.6718246259358305,4.362071275231027
0.618,7.510448717851534,0.6697065789866791,4.362357721303095
0.62,7.510902147963962,0.6676034182889661,4.3626600462327
0.622,7.511300942914293,0.6655312636977004,4.36309268004244
0.624,7.511627812916771,0.6634667585842176,4.363537341058436
0.626,7.511908451983833,0.6613839639845452,4.364072172799954
0.628,7.512140072575115,0.6593508695431453,4.364601705743765
0.63,7.512329338224453,0.6572884101237215,4.365182829790609
0.632,7.512497022626491,0.6552417258536662,4.365821194754572
0.634,7.512609399896791,0.653234407398327,4.366456755652064
0.636,7.512693816830368,0.6512130752649106,4.367117029446253
0.638,7.512757156116899,0.6492035845800413,4.367809105753601
0.64,7.512783615637397,0.6472324287371736,4.368480870396523
0.642,7.512771514643923,0.6452121561628308,4.369202528725156
0.644,7.512734170940298,0.6432392269284893,4.369929629202342
0.646,7.512691793854571,0.6412550613307209,4.370608373647651
0.648,7.512631694193574,0.6392848698654098,4.371321576393472
0.65,7.512514163067473,0.6373440490498593,4.372003597366658
0.652,7.512416723092164,0.6353793226992558,4.372658614172275
0.654,7.512300217071723,0.6334235083885669,4.373329814266444
