Time [s],Flexion(-)/extension(+),Abduction(+)/adduction(-),Internal(-)/external(+) rotation
0.0,-12.042600176107303,-9.195891401157496,5.953349216222549
0.002,-12.042350463493124,-9.195792987537585,5.952022359410818
0.004,-12.042122647239689,-9.195683889240883,5.950589318533615
0.006,-12.041879319556292,-9.19557645592528,5.949084268112082
0.008,-12.041595328386112,-9.19544975247295,5.9475002904139975
0.01,-12.04130742336752,-9.195299301334423,5.945798634719204
0.012,-12.041038091394169,-9.195178271695596,5.944029439733852
0.014,-12.040725079171168,-9.194997506679348,5.942150272357378
0.016,-12.040415559529933,-9.194862372673834,5.94016122467645
0.018,-12.040114685467369,-9.194655131491983,5.9380791922844
0.02,-12.039741852844953,-9.194447697794159,5.935890830681894
0.022,-12.039405758627233,-9.194204582650974,5.933600839825148
0.024,-12.039037840847271,-9.193983563289724,5.9312267801333425
0.026,-12.038662377386178,-9.193718448924539,5.928725265252562
0.028,-12.038257467580593,-9.193436578007995,5.926155078181086
0.03,-12.037863519538535,-9.193155981385368,5.923476974114138
0.032,-12.037439260779516,-9.19282943997223,5.920727899940619
0.034,-12.037006791777307,-9.192522496975275,5.917894985713767
0.036,-12.036550661889517,-9.192165259603662,5.9149775407788505
0.038,-12.036086297096825,-9.191768226105985,5.912002805997762
0.04,-12.03562056197395,-9.191412817209434,5.90900793971604
0.042,-12.035116548043357,-9.190997852835718,5.905924057645279
0.044,-12.034611375918129,-9.190578297786239,5.902832797099938
0.046,-12.034064740786832,-9.1901167386979,5.899682910635768
0.048,-12.033528772262587,-9.189663220126771,5.89652984886859
0.05,-12.032943872569458,-9.18918207610218,5.8933616794394315
0.052,-12.032370943914533,-9.188712109683367,5.890178206628363
0.054,-12.031757679589527,-9.188187622258571,5.887017650745744
0.056,-12.031079809202046,-9.187647647031877,5.88377674495774
0.058,-12.03040473868389,-9.187114661807584,5.880550658339758
0.06,-12.029709120024803,-9.186551468085886,5.8773741181232255
0.062,-12.02899627056312,-9.18603274274798,5.874229653978652
0.064,-12.028243332730604,-9.185451205373251,5.8710862397824215
0.066,-12.027437770278578,-9.184871958220613,5.867994928463865
0.068,-12.026623340705695,-9.184295184851157,5.8649494121157755
0.07,-12.025785594995721,-9.183735113287176,5.861941884363342
0.072,-12.024896129295287,-9.183119731019575,5.858969904553537
0.074,-12.023969129813109,-9.182535913898755,5.8560255651688164
0.076,-12.02304463449367,-9.18194917414093,5.853098262834564
0.078,-12.022040457589757,-9.18137902083025,5.850238124563756
0.08,-12.021057385503827,-9.18082168985579,5.847429196888159
0.082,-12.02002817045535,-9.180223747589704,5.844632195640656
0.084,-12.0189607203228,-9.179681388473364,5.841910767433935
0.086,-12.017875206257402,-9.179129782156066,5.839238665675614
0.088,-12.016725836206001,-9.178596664313805,5.836554236735537
0.09,-12.015589104989992,-9.178050206635405,5.8339724457577065
0.092,-12.01440885031549,-9.177554188349896,5.831408203297722
0.094,-12.013216595056212,-9.177062565099499,5.828902888592359
0.096,-12.011996223473407,-9.176552460302451,5.826449904548962
0.098,-12.010779155750727,-9.176120504644272,5.8240307601089665
0.1,-12.009524557506372,-9.175660051529157,5.821669569604995
0.102,-12.008264369034245,-9.175236914742328,5.819367284889519
0.104,-12.006984679998792,-9.174841898410216,5.817109016214686
0.106,-12.005681450645982,-9.174450504065234,5.8148933572218295
0.108,-12.004442289462276,-9.174082769489276,5.812750035276819
0.11,-12.003129863372608,-9.173775079604656,5.81066224413623
0.112,-12.001872973816141,-9.173461937768474,5.808602121263875
0.114,-12.000573680602107,-9.17318268135962,5.806589279997082
0.116,-11.999298684552631,-9.172917083351951,5.804639952728619
0.118,-11.998031157389923,-9.172710506346213,5.802757885731146
0.12,-11.996756677935146,-9.17246802363476,5.800901539328434
0.122,-11.995559005145173,-9.172319214539426,5.799116137023499
0.124,-11.994323534259204,-9.17214457024272,5.797344352486671
0.126,-11.993096537131807,-9.171994338554217,5.795650930571911
0.128,-11.991944569522117,-9.17189205016186,5.793979743730545
0.13,-11.990785821058386,-9.171803616174966,5.792364146719597
0.132,-11.989662572810337,-9.171693959832364,5.790756622946046
0.134,-11.988582020666247,-9.17164290302091,5.78922849575301
0.136,-11.987534893777234,-9.17158739608712,5.787681543730907
0.138,-11.986531068934422,-9.171542298441992,5.786216659117411
0.14,-11.98555362640566,-9.171515438048186,5.784758101689933
0.142,-11.984623384718919,-9.171501785693017,5.78336471647202
0.144,-11.98376541325695,-9.171491552843948,5.781964016944672
0.146,-11.982927267010146,-9.17145967638561,5.780608028325156
0.148,-11.982111152480494,-9.17145668711974,5.779281986716338
0.15,-11.981404603540257,-9.171440033133731,5.777939943035621
0.152,-11.98068645145216,-9.171423191775053,5.776641855343155
0.154,-11.980019971545575,-9.171411976272243,5.7753755638431254
0.156,-11.97941689566149,-9.171392172507385,5.774122546526608
0.158,-11.978864432738423,-9.171347125629959,5.772854054668769
0.16,-11.978367458277916,-9.171346665349235,5.771636700502561
0.162,-11.977887360065273,-9.171288056346263,5.770379949322293
0.164,-11.977462019888137,-9.171213031958409,5.769185356076361
0.166,-11.977090166213738,-9.171172395016763,5.767971391524807
0.168,-11.976711300807603,-9.171082624405242,5.766777305608291
0.17,-11.976374689443743,-9.170984920085154,5.765544085423068
0.172,-11.976077864900624,-9.170892730194563,5.764338959914707
0.174,-11.97579483726703,-9.170757920120206,5.763131075578793
0.176,-11.975525950621105,-9.170634333368211,5.761896513894373
0.178,-11.975297543270388,-9.170512801084474,5.760685441272853
0.18,-11.975037525239728,-9.170377929632643,5.759457431770775
0.182,-11.974798832421843,-9.170194522333503,5.75820950068062
0.184,-11.974564325248716,-9.170064504382074,5.75696284308939
0.186,-11.974331835654626,-9.169912927694165,5.755696730365834
0.188,-11.974032899192133,-9.16975224468975,5.754434729451337
0.19,-11.97376678089483,-9.169535463951382,5.753135901358263
0.192,-11.973501291099366,-9.169390544800157,5.751820397154528
0.194,-11.973180445643031,-9.169186177072344,5.750486662554857
0.196,-11.972824510010568,-9.16900057890455,5.749111570127961
0.198,-11.972431993323559,-9.168795202515705,5.747725306897546
0.2,-11.972013704088916,-9.1686229061963,5.746313924291486
0.202,-11.97155967275611,-9.168409380972605,5.74487170191375
0.204,-11.97106328811968,-9.168203408345788,5.743409877548198
0.206,-11.970499770503997,-9.168000478787997,5.741926408149484
0.208,-11.96990664701088,-9.167777642164067,5.7403709310101085
0.21,-11.969217549828505,-9.167550410845289,5.738817432568724
0.212,-11.968536511008299,-9.16733448716565,5.737217994428781
0.214,-11.967767871576603,-9.167124255680653,5.7355712766237
0.216,-11.96696403592653,-9.166891672832033,5.733929053396147
0.218,-11.966125904890154,-9.166671769601507,5.732255549047356
0.22,-11.965224408323396,-9.166411517679773,5.730516424162458
0.222,-11.964224336745678,-9.166160896115297,5.728775237630795
0.224,-11.963252603329924,-9.16589899647915,5.726998889024646
0.226,-11.962185928474504,-9.16565171562165,5.725202890330881
0.228,-11.961086056641431,-9.165393146375203,5.723374276061981
0.23,-11.9599576725427,-9.165101206276212,5.721538402571452
0.232,-11.958786600395173,-9.164817562427524,5.719671926107915
0.234,-11.95757086224679,-9.164492787187141,5.717780852076574
0.236,-11.956358180308984,-9.164151528160705,5.715883496028156
0.238,-11.955110779536364,-9.163794810334172,5.713960107987218
0.24,-11.953857227851056,-9.163412721271717,5.71202598277038
0.242,-11.952595530114595,-9.163047578731875,5.710072220279666
0.244,-11.95131632840428,-9.162623438175677,5.708120977765928
0.246,-11.950023079540326,-9.16216841330184,5.706127526465853
0.248,-11.948769922691291,-9.161706317979926,5.70414614780052
0.25,-11.947520458842048,-9.161162663771123,5.7021245971229275
0.252,-11.946318795027256,-9.16060588198843,5.700109822904392
0.254,-11.94510086660383,-9.160008089296547,5.698044796776437
0.256,-11.943919256406938,-9.159331525750689,5.695988778306436
0.258,-11.942787864025407,-9.158601247219858,5.693893310566544
0.26,-11.941734265597276,-9.157837985471826,5.691790022781332
0.262,-11.940651689215223,-9.157004215103385,5.689640701218402
0.264,-11.939668114355019,-9.156110941892672,5.687500947147124
0.266,-11.938707585894313,-9.155124498141902,5.685345108538512
0.268,-11.937818349920356,-9.15412168885971,5.683155487298078
0.27,-11.93698743793552,-9.153054458763842,5.680982359694893
0.272,-11.936206374520427,-9.151867644100971,5.678782995727168
0.274,-11.935484959870411,-9.150684278126267,5.676629742053751
0.276,-11.934827670992595,-9.14939690684549,5.674469249235961
0.278,-11.934227455770685,-9.148121842601151,5.672338368846149
0.28,-11.933707229006865,-9.146803945706946,5.67025198050304
0.282,-11.933222505122412,-9.145429182910327,5.6682226545301475
0.284,-11.932835424220732,-9.144059415194917,5.66627319233131
0.286,-11.932465808986004,-9.142652073608174,5.664383712272273
0.288,-11.932193152558819,-9.14126765202484,5.662603178533795
0.29,-11.931959071935452,-9.139876022489661,5.660908343767371
0.292,-11.931776783780023,-9.138536246373128,5.659350186464936
0.294,-11.931654212856433,-9.137211415372292,5.657894920725625
0.296,-11.931608688554423,-9.135961811278644,5.656647230897274
0.298,-11.931615907992429,-9.134729128818764,5.655530972907323
0.3,-11.93163073995274,-9.133556847835184,5.654554969644079
0.302,-11.931733024984094,-9.132500111515357,5.653787045775166
0.304,-11.931883564349146,-9.131521821452994,5.653171471267814
0.306,-11.932085044396112,-9.130622242550212,5.6527663553807335
0.308,-11.932306541190545,-9.129836791993023,5.652540628044265
0.31,-11.93257144962902,-9.12913244141703,5.652493194555251
0.312,-11.932915625047832,-9.1285603837296,5.65262419123999
0.314,-11.933257100543536,-9.128098903262545,5.652965425554494
0.316,-11.93366175091081,-9.127774612932773,5.653494502332908
0.318,-11.934131945162475,-9.127531672114843,5.654165906924998
0.32,-11.93456714825561,-9.127397459060974,5.6550386981003165
0.322,-11.935109976828972,-9.127395890508488,5.656063189972011
0.324,-11.935630629722699,-9.127446521631596,5.657214206884509
0.326,-11.936220573223018,-9.127615690983019,5.658501387326397
0.328,-11.936833965959014,-9.127868442520018,5.659922348705247
0.33,-11.937473979033879,-9.128169459417325,5.661435648563448
0.332,-11.93814945979646,-9.128575442046948,5.6630449657367095
0.334,-11.938880720703457,-9.129015113865423,5.664731349538299
0.336,-11.939601405784856,-9.129451001001865,5.66646182238778
0.338,-11.940396547179283,-9.129942562078218,5.668254674538798
0.34,-11.941217943446539,-9.130406046136335,5.670044059151289
0.342,-11.94207731909873,-9.130899445968904,5.671835803429809
0.344,-11.942969113396158,-9.131368159656368,5.673645741227512
0.346,-11.943891951512551,-9.131746185995862,5.675403589085563
0.348,-11.944865036572379,-9.132133748422383,5.677120408805986
0.35,-11.94589626936787,-9.13241181796475,5.678755494264679
0.352,-11.94698553963048,-9.132597167699695,5.680306695624353
0.354,-11.948126517659597,-9.132714910279764,5.681789142927615
0.356,-11.949355800373771,-9.13270807461482,5.683133472547259
0.358,-11.950602810377072,-9.132602755162237,5.6843571850656005
0.36,-11.951956492374999,-9.132341711139702,5.6854249387095575
0.362,-11.953374803329705,-9.131949927965115,5.686334207074818
0.364,-11.95490858131665,-9.131439503991206,5.687066105607245
0.366,-11.956498686860057,-9.13075516843776,5.687619792882325
0.368,-11.958206626232638,-9.129937006656215,5.687955948271321
0.37,-11.959993337453385,-9.128937038003631,5.688093611519689
0.372,-11.961865119421281,-9.12779279757836,5.687985675332833
0.374,-11.963893600924347,-9.126529106717467,5.687665355241576
0.376,-11.965984080319284,-9.125086172104858,5.687105559542219
0.378,-11.968195716959483,-9.123485443421286,5.686302558677191
0.38,-11.970480232271578,-9.121772027232481,5.6852289466877854
0.382,-11.972897702945406,-9.119916586514094,5.683932906491677
0.384,-11.975388750622086,-9.11791820139616,5.682348562189359
0.386,-11.977916404383784,-9.115787138843364,5.680500744737781
0.388,-11.980571989768137,-9.113562094884776,5.678381063531984
0.39,-11.98330032876464,-9.111224727462739,5.676029446602044
0.392,-11.98608036502953,-9.10877726718317,5.673380412857442
0.394,-11.988904996585667,-9.106267027880651,5.670494432402792
0.396,-11.991804572693093,-9.103665034772344,5.6673681167557115
0.398,-11.994698196526368,-9.101001303242576,5.663950327961462
0.4,-11.997624644837193,-9.09823972144275,5.66034278604085
0.402,-12.000571285657154,-9.095462367081478,5.656469339358594
0.404,-12.003523385054926,-9.092672422195445,5.652403686949639
0.406,-12.00642977263102,-9.089839085249604,5.648123275659834
0.408,-12.009354550355306,-9.086966565239956,5.643648991925922
0.41,-12.01223863109893,-9.084049520493474,5.639007280314638
0.412,-12.01506357579562,-9.081213544406038,5.634216223243713
0.414,-12.017854189720385,-9.078303666534097,5.629275777375739
0.416,-12.0205933045064,-9.075450472144219,5.624216198317672
0.418,-12.023261720319743,-9.072566662097266,5.618975107247928
0.42,-12.025879850118546,-9.069720522206666,5.613711286802279
0.422,-12.028435640161964,-9.066900344268628,5.608309618694568
0.424,-12.030888552000254,-9.064098568917203,5.602886308841256
0.426,-12.033279365586754,-9.06132486532643,5.597413071369794
0.428,-12.03562705290763,-9.058567791312393,5.591906928868407
0.43,-12.037854736422185,-9.055828720132148,5.586393182679292
0.432,-12.04000367235261,-9.053120302055309,5.5808936410079095
0.434,-12.0420927707912,-9.050480733877004,5.5753977303527185
0.436,-12.044159548425723,-9.047859151809245,5.569968977102601
0.438,-12.04607609858508,-9.045208727328648,5.564545607290248
0.44,-12.047938137905847,-9.042633170323805,5.559215385570819
0.442,-12.049716478935226,-9.040062169548056,5.55393836248042
0.444,-12.051488655555284,-9.037512667027345,5.548765683433467
0.446,-12.053157866873171,-9.035010482822418,5.543691086850561
0.448,-12.054740986470211,-9.03251034310562,5.538711035797917
0.45,-12.056307134052544,-9.030047214731393,5.533856920925343
0.452,-12.05780060386132,-9.027593992654593,5.529149343340164
0.454,-12.059251469942165,-9.025183356305059,5.524556017250011
0.456,-12.060612004966696,-9.022721961584123,5.520073647003815
0.458,-12.061900678108803,-9.020316246920473,5.515751717962937
0.46,-12.063155400365028,-9.017893510671984,5.511527990334886
0.462,-12.064376759814085,-9.015480375220635,5.50747881558278
0.464,-12.06550687792669,-9.013070236532837,5.503564174557133
0.466,-12.066582159870634,-9.010706562315422,5.499780576714535
0.468,-12.06759337860917,-9.008276001357746,5.49612182672886
0.47,-12.068619287108989,-9.005938237066843,5.49263563620306
0.472,-12.069522330403142,-9.003530749328618,5.489247188288085
0.474,-12.07037070082624,-9.00115107003628,5.486003122354767
0.476,-12.071172064308538,-8.998773873772379,5.482861120190006
0.478,-12.07195296430082,-8.996412307934518,5.479881480754443
0.48,-12.072671254731778,-8.994060187061791,5.47695403585564
0.482,-12.073345978748586,-8.99174447944969,5.474185228851958
0.484,-12.073953839033416,-8.989448721760857,5.471485321021881
0.486,-12.074531063758743,-8.987133519407047,5.468918980268632
0.488,-12.075056405612786,-8.984844489458196,5.466429251611188
0.49,-12.075549440236767,-8.982590912663975,5.464030422884789
0.492,-12.076033398753241,-8.980401260005495,5.461729044547359
0.494,-12.076465866809402,-8.978245657676,5.459516800481126
0.496,-12.076861861628082,-8.976135579333839,5.457398124054063
0.498,-12.077240112505779,-8.974041931174561,5.455329790097718
0.5,-12.07760210928781,-8.9720384663848,5.453366439682609
0.502,-12.07794559030189,-8.970073621488794,5.451436108100975
0.504,-12.07829088289136,-8.968216735466338,5.449626899308529
0.506,-12.078644011102668,-8.966411572278579,5.447902063969818
0.508,-12.07895361675065,-8.9647045545345,5.446250676970395
0.51,-12.079261906294764,-8.963008371123598,5.444618252648023
0.512,-12.079631034463885,-8.961459907260673,5.443095832915788
0.514,-12.079955886412343,-8.960025035835274,5.4416813304055305
0.516,-12.080302782857482,-8.958625818574957,5.440328634122679
0.518,-12.080686921914403,-8.95733415017352,5.439045162925198
0.52,-12.081053881521031,-8.956158680214235,5.437870947335661
0.522,-12.081460616694093,-8.95505121049981,5.436759142447839
0.524,-12.081881558547883,-8.954045308293713,5.435738369313865
0.526,-12.082310141440317,-8.9531346996187,5.4347773495609415
0.528,-12.082769689556484,-8.952308808845189,5.433949247218668
0.53,-12.083215826667129,-8.951593588066592,5.4331659145457225
0.532,-12.08369452821774,-8.950954748989535,5.432499736678837
0.534,-12.08422629748507,-8.950406796354875,5.431889389889229
0.536,-12.084726769538083,-8.949913417865805,5.431359623300332
0.538,-12.08527831521942,-8.949525931357426,5.430919509684453
0.54,-12.085841158790892,-8.949189212318053,5.4305405425111815
0.542,-12.086393868268429,-8.948914545541774,5.4302413380664065
0.544,-12.086986776094358,-8.948718927669477,5.430011959436664
0.546,-12.087591780866504,-8.948544199400445,5.4298188118017
0.548,-12.088198273604897,-8.948423040292962,5.429689336101289
0.55,-12.088812764290017,-8.948362738458387,5.429604516958121
0.552,-12.089462433126705,-8.948359161469906,5.429551103812489
0.554,-12.090100743566303,-8.948340151252403,5.429543481909329
0.556,-12.090746408217665,-8.948362132946835,5.429543273111631
0.558,-12.091440608760246,-8.948466355743733,5.429576840769449
0.56,-12.09212175659937,-8.94851795076794,5.429614779858163
0.562,-12.092820401544452,-8.948623293914782,5.429667125002679
0.564,-12.093504371032466,-8.948726800603056,5.4296959391322135
0.566,-12.094186712968456,-8.948855772752001,5.429713575037463
0.568,-12.094924895180226,-8.949013160780956,5.429736833156235
0.57,-12.09562199905083,-8.9491049802635,5.42970840098816
0.572,-12.096348559689732,-8.949252019041467,5.4296569842639775
0.574,-12.097069904702854,-8.949363418566373,5.429563606324842
0.576,-12.097776912615592,-8.949517205159868,5.429440528916351
0.578,-12.09851196572595,-8.949632980821995,5.4292496695856105
0.58,-12.099219811058623,-8.949765433627945,5.429016392279487
0.582,-12.099921205349432,-8.949872459244428,5.4287221140433966
0.584,-12.100638107832568,-8.949932274386422,5.428336669552058
0.586,-12.101305864537684,-8.949977013092294,5.427922287584455
0.588,-12.10200138245296,-8.950045850088244,5.427399996016384
0.59,-12.102651022784892,-8.950041721589574,5.426814908060104
0.592,-12.103294907611446,-8.95005603990617,5.426169598194201
0.594,-12.103937480755205,-8.95001314737397,5.425415862557423
0.596,-12.104514628078821,-8.949949370636492,5.424598593121733
0.598,-12.105097005069299,-8.949785659958284,5.423630505027012
0.6,-12.105653088958034,-8.94964358443237,5.4226413699724985
0.602,-12.106185105798135,-8.949454021319463,5.421523605973496
0.604,-12.106671828306272,-8.949188778045743,5.420346619926632
0.606,-12.107177381315484,-8.948899651980767,5.419045175778698
0.608,-12.107608269166901,-8.948524135406071,5.417672187571799
0.61,-12.108035522513381,-8.948103264337364,5.416193254954136
0.612,-12.108455572413554,-8.947629506127825,5.414623005977921
0.614,-12.108823220476912,-8.94710347523914,5.412977261632259
0.616,-12.10915785339391,-8.946504552209808,5.411241770434163
0.618,-12.109479963113023,-8.945838645739128,5.409432573745071
0.62,-12.109763053326912,-8.945100449835873,5.407527358216083
0.622,-12.110034928249032,-8.944344152612574,5.405556602834273
0.624,-12.110251514178287,-8.943517414192616,5.403516578329075
0.626,-12.110459161030501,-8.94258856333712,5.401426608376292
0.628,-12.110595993789813,-8.941614013507586,5.399234655821143
0.63,-12.110712698484765,-8.94058409360103,5.397039758446271
0.632,-12.110810625826234,-8.939510897573847,5.394759127192164
0.634,-12.110813915397241,-8.938355165822935,5.392482475547985
0.636,-12.110768913093775,-8.93712879476435,5.390115019833344
