Time [s],Flexion(-)/extension(+),Abduction(+)/adduction(-),Internal(-)/external(+) rotation
0.0,-2.6064492241573887,-13.52388488704568,-18.229085249059796
0.05,-3.4411015351325935,-13.928121074023279,-18.625237189474163
0.1,-4.285905405603949,-14.412805227955717,-19.321547346442355
0.15,-5.171870583828771,-14.444512562581572,-20.489317114103397
0.2,-6.005894419972193,-13.73493289056055,-21.528497476072516
0.25,-6.921131141353042,-12.79800849971798,-22.30861574430214
0.3,-8.073758807440132,-12.195088485983334,-22.544359101359923
0.35,-9.167751871752799,-12.304577015440909,-22.017488052371434
0.4,-9.990140183523032,-12.864806996096862,-21.458799883429233
0.45,-10.254222448434462,-14.193904613538773,-21.24714400046564
0.5,-9.678749038908178,-16.22830202730825,-21.601903035595058
0.55,-9.840005758512811,-17.09758347711764,-23.666240596679447
0.6,-10.433167253692526,-17.36027728989898,-26.5036876616491
0.65,-10.658361088655667,-17.643459432959503,-27.72410759408461
0.7,-10.236484296394938,-18.429579273076598,-26.840938516537516
0.75,-10.454307821711483,-19.068872075948665,-25.44917083187141
0.8,-11.536342782278874,-18.73142182555491,-25.400769265232984
0.85,-12.188471014093544,-18.29608111880172,-25.268782477771676
0.9,-12.819213437104095,-17.936029902548974,-25.247762216105237
0.95,-13.383790858257461,-17.29913690724111,-25.88621189063505
1.0,-13.016820166399343,-16.473537035499202,-25.595512416416568
1.05,-11.48746608683135,-15.625541751648214,-24.401993601790156
1.1,-9.435379281523213,-14.732814909381686,-23.225290964593178
1.15,-7.287791449899022,-13.758753506326471,-22.300598286556184
1.2,-5.09692352926735,-12.975455397520033,-21.683543744897598
1.25,-2.9696016058558152,-12.107817393083298,-21.172645833464408
1.3,-1.4581104187437273,-10.606316018005673,-20.957552196275007
1.35,-0.4657415768734967,-9.097676617522154,-20.588072100459048
1.4,0.45594191151296243,-7.457581971984883,-20.701472813706065
1.45,0.8224004149396329,-8.105330822367469,-19.98512009576839
1.5,0.3598969027442118,-9.186956726994392,-18.435122320341115
1.55,-1.0634530469831835,-10.007347281858554,-16.856494086716484
1.6,-2.3813790227265472,-9.859242217563505,-16.448140149540414
1.65,-3.227373756556682,-9.593282500889794,-16.054130170058684
1.7,-3.644253020974688,-9.600348495481578,-16.45118077767126
1.75,-3.509948424657751,-9.291973949298097,-18.2312931335475
1.8,-2.9198093741640947,-9.2736925357049,-19.865172321351057
1.85,-2.160179186911199,-9.83562703996024,-20.174417392424495
1.9,-1.827680791377516,-10.486165660471283,-19.339506433278114
1.95,-1.6220586455759571,-10.970018855009023,-18.444105420320028
2.0,-1.2009280206126656,-11.223147130789453,-18.0416603036764
2.05,-1.1757691384542497,-11.519583123949756,-17.73353870962444
2.1,-1.6326702096112238,-11.768276910868508,-17.574589774579692
2.15,-2.247855086709816,-11.880691081411898,-17.94645307116774
2.2,-3.072507283532752,-11.950687040293598,-18.6907911569949
2.25,-4.269505047074649,-12.040730651144266,-19.967145533834568
2.3,-6.013165585622544,-12.121973773675055,-21.81709741072119
2.35,-8.005433523612458,-11.936747344188005,-24.221195753445343
2.4,-9.404745125650338,-11.46518321705286,-26.84789515634178
2.45,-9.669129104390956,-11.172241248592119,-29.063804951823872
2.5,-9.185323745974188,-11.15742752637366,-29.84812777208551
2.55,-9.227586369798743,-12.075439606895655,-28.98250443807441
2.6,-10.46579274792153,-14.016744893403775,-28.531731016759796
2.65,-11.875564134186087,-15.283581067403038,-29.445462577726932
2.7,-12.133728897732965,-15.391521093543682,-30.69245321509025
2.75,-12.164362363861617,-15.036559453670062,-31.613590956945615
2.8,-12.404842772407587,-14.8668729117116,-32.10390361760119
2.85,-12.123515832152654,-14.794847534451343,-32.21950850759904
2.9,-12.027467869666658,-14.485424877882524,-32.008703634191356
2.95,-12.238607564768435,-14.053543554011753,-31.943854774463514
3.0,-12.052914483139382,-13.768442126945079,-31.731576041013263
3.05,-11.261828489210885,-13.889770450086164,-30.87456329826003
3.1,-10.124522317692028,-14.167496540154158,-29.68372423260587
3.15,-9.040469780496734,-14.765773949752717,-28.266151134196534
3.2,-8.171031367832482,-15.585626291133897,-26.730177621241026
3.25,-7.273279753682025,-16.19759228138539,-25.594517813423014
3.3,-5.592827880790915,-16.14159508779461,-24.8189240849945
3.35,-2.84523752147484,-15.828694651963122,-23.882352360810753
3.4,-0.03144755859395777,-16.30562821875715,-22.136018869049146
3.45,1.833154960414276,-16.75223726466728,-20.77120368890973
3.5,3.6243898849057534,-16.60367844297417,-20.48401600251015
3.55,5.200527765716799,-16.41867908396081,-20.497235279767388
3.6,6.294555012501426,-16.23652723724841,-21.00164577206958
3.65,6.930240325756419,-16.18635637922882,-21.390843066608387
3.7,7.243618151192542,-16.096361374405234,-21.443771557727803
3.75,7.498576807676552,-15.981079491489833,-21.24203918156242
3.8,7.926197038989466,-15.773563675979908,-21.04202694960705
3.85,8.718209885806019,-15.141030202061957,-21.286975497342997
3.9,9.676001295914164,-14.198569680975663,-21.9974399445842
3.95,10.119783711232152,-13.170798354357927,-23.447593937406292
4.0,9.35806337407885,-12.630598050034248,-24.57243581321829
4.05,7.17746910933448,-12.669106294157997,-25.689692564412855
4.1,4.164819738767638,-13.182128924747827,-26.133867106351925
4.15,0.689811137066278,-13.981087228994845,-25.60912307487858
4.2,-3.0834367863790093,-14.442525583079696,-25.293548208622692
4.25,-6.63910615230246,-14.298966855759321,-24.844201520437004
4.3,-8.758920330508959,-14.33047687207843,-23.68488164982464
4.35,-8.880717749697345,-14.23198402241442,-22.856417217888097
4.4,-7.528758100944493,-14.25568066041803,-21.971135163968913
4.45,-6.176901648527663,-14.955956678196399,-20.729496193887027
4.5,-6.114123804508731,-15.0677169005105,-20.705071829634864
4.55,-6.395394718849238,-14.225343524333924,-20.705374332911965
4.6,-6.046419192167792,-13.874468455482281,-19.53257003794007
4.65,-4.328428693212025,-14.213849118219443,-17.6682439128061
4.7,-1.8049701530979576,-14.466089776053424,-16.259646152100732
4.75,0.8887449984404099,-14.258911694724375,-15.379698113245677
4.8,3.5337563165083927,-14.086978860681397,-14.907754738950242
4.85,6.194986309048464,-13.807317728127702,-13.894148707866014
4.9,8.196527059698365,-13.69745050826549,-12.59696694375804
4.95,9.547978087064436,-14.324579645894245,-12.567145562782988
5.0,11.321095171563947,-14.883971136046243,-13.806508136966999
5.05,12.844075806494669,-14.62993416848224,-14.652987244562489
5.1,12.888321524729331,-14.392523437633232,-13.880180473863954
5.15,12.171413807491088,-14.763558658407923,-13.377301168965133
5.2,12.097055903400385,-15.153621005667087,-14.202695613653686
5.25,12.400149217013373,-15.517674112637279,-15.074817849566385
5.3,12.440595479389586,-15.779994805238786,-15.369571181866553
5.35,12.206581225621806,-16.082533905550623,-15.634718411879998
5.4,12.055373356010202,-16.425978597366164,-16.20487141176274
5.45,11.907551748652878,-16.598840387694747,-16.552084846414633
5.5,11.695218987542104,-16.60191741486577,-16.511889518986536
5.55,11.300675136078237,-16.504224398970134,-16.768068165944026
5.6,10.551037034401386,-16.041437581089397,-17.356632849905218
5.65,9.180084756438669,-14.983787944854253,-17.59904605056093
5.7,7.3345112321775545,-13.892100361887783,-17.947332002285094
5.75,5.7446756520715025,-13.109103385866609,-18.328553000296214
5.8,4.0956824282975095,-13.16260633532337,-18.8017364308677
5.85,1.9827512455397545,-13.193724210064838,-18.896590445904245
5.9,-0.1273494478527113,-12.743287365691119,-18.674799102030995
5.95,-1.7529690358957262,-12.335130934790428,-18.739044502479686
6.0,-3.0795364364255495,-12.135389580218703,-18.872168132773453
6.05,-4.383920563665021,-12.077304172155497,-18.792231457610956
6.1,-6.067999195537931,-11.866684077566129,-18.547041611817132
6.15,-7.573006200809266,-11.282779624445231,-18.534972928026345
6.2,-8.083807590674242,-10.472541130263158,-18.754740395669774
6.25,-8.183004732608838,-9.734380320239419,-18.907258160218504
6.3,-8.161268795531123,-9.164511837102335,-18.710173773593393
6.35,-7.977310004078646,-8.98103419235305,-18.24587251037309
6.4,-7.858927594447795,-9.166419091588498,-17.6847648848784
6.45,-7.864908965089233,-9.655926226457392,-17.081295733282147
6.5,-6.946818831698634,-10.454038981877753,-16.47195835787776
6.55,-5.611461085158989,-11.515982935435558,-17.28727809240116
6.6,-3.723612839019844,-11.547533711686285,-17.820933355416734
6.65,-2.4260054255686545,-11.435961020823973,-15.88029773099907
6.7,-1.5109596463561352,-11.842077041525561,-14.27622870752389
6.75,-1.9607866964386609,-11.712022826548573,-14.778979161659858
6.8,-2.8058533058292485,-11.056156656788039,-14.743618854463746
6.85,-3.435824210845517,-9.650201149505273,-13.54577851377366
6.9,-3.0700688614523415,-9.209792934457896,-13.114501058865676
6.95,-1.7501525874356767,-9.400199441363448,-14.294985909998035
7.0,-0.9866262123675454,-8.664823886445,-15.584768282875501
7.05,-1.6843343251298182,-7.455097303701976,-15.553423522859719
7.1,-2.7702137879733035,-6.450159864987296,-14.878987138667743
7.15,-4.589615107686876,-5.399055190796671,-14.103941203213063
7.2,-7.574612323918286,-4.148165482805145,-12.908603750151565
7.25,-9.90074763251156,-3.6340435770180246,-11.23686503230397
7.3,-10.817283446572045,-3.898578410736434,-10.077294020296707
7.35,-11.242681639057588,-3.775849850647904,-10.205198923186368
7.4,-11.045579249158141,-3.6267333618897872,-10.47539596231883
7.45,-10.107156181925813,-3.9573003636734785,-9.974647999095827
7.5,-8.953152038145262,-3.852601789870225,-9.316143262095926
7.55,-7.447736041578928,-2.887335656538556,-8.739061126835109
7.6,-6.281444090518223,-1.4923076501906969,-8.303637960053385
7.65,-6.093257064603607,0.3432604059865575,-8.889148359758101
7.7,-8.317874204014865,1.4238717837012782,-11.38514859555465
7.75,-10.717336834005337,-1.2131844934609695,-14.066882147187405
7.8,-11.769031258743777,-5.6267896290539685,-16.10170789877653
7.85,-11.877691702230058,-9.78377393037515,-16.171004246975606
7.9,-11.24271056501249,-12.146904391737948,-15.939309160642868
7.95,-9.144901536289318,-12.718979074049935,-15.992414872866641
8.0,-9.444688964277695,-14.475434913300784,-15.087720928723988
8.05,-9.86343279739275,-15.878878040388301,-14.550518974324344
8.1,-9.682342676084096,-13.204707750019418,-15.094719666565569
8.15,-8.773807795062426,-11.64834199673374,-13.78010981652153
8.2,-6.104525242499791,-11.526731516833667,-12.034733458200478
8.25,-3.400559512569033,-10.942155953156776,-12.090112816644643
8.3,-1.3924704204384564,-12.023086865012978,-11.423925396614703
8.35,-0.18759313512925646,-12.36447710884062,-10.924538822339283
8.4,1.7508074935116504,-12.001868532710152,-10.83044032234616
8.45,3.666894628412431,-12.644438402090236,-10.396269422192647
8.5,4.700449386341914,-12.350051677948928,-9.183365178644014
8.55,4.361999604001835,-12.145060081298242,-8.0861069574998
8.6,2.1285630507745497,-12.14517831760033,-9.912799397029692
8.65,-3.209955284046125,-11.25593077412852,-14.703536375609442
8.7,-8.416641323596593,-9.893134764453228,-18.504212405059427
8.75,-12.421178465321125,-10.83386618363039,-21.030327675456878
8.8,-16.402284848503463,-12.11778962992154,-22.976807052770607
8.85,-14.460477950873335,-13.081755918620397,-24.201315898890048
8.9,-9.709446473801522,-13.471296577131646,-24.145801087419493
8.95,-8.095212755436242,-13.808198694735308,-19.139138974239447
9.0,-7.98402406579192,-15.377538923703954,-12.843160462728559
9.05,-7.090411163281353,-16.95304688876137,-11.360212021046445
9.1,-4.776322564847959,-16.570204720811752,-12.611236449775959
9.15,-1.2625367631093614,-16.489293295671857,-13.252334837481024
9.2,0.10825580733431646,-15.996425117762552,-10.65864304660405
9.25,-0.8994364805366508,-15.143912553934681,-11.239374264476467
9.3,-4.950812076269992,-13.048428339582024,-15.72237465923625
9.35,-6.625211481189496,-11.307476983986591,-20.931372348525144
9.4,-11.936162219105242,-10.823029882906138,-22.81038023310665
9.45,-17.01071380792789,-12.54225972741485,-20.176500421158845
9.5,-16.64408929542289,-13.8412438376842,-19.731334797043523
9.55,-15.87844922152016,-13.42836048487342,-18.713356252514654
9.6,-20.074522370841372,-12.420087236651648,-18.56942546474792
9.65,-22.858696036466373,-11.72171005811181,-18.63501668826212
9.7,-24.687988274100228,-12.174592147295103,-18.5175591452408
9.75,-25.26141290191322,-12.124965177490598,-17.209113362431857
9.8,-27.461227665590705,-11.167518543224366,-16.928504351839855
9.85,-29.269647181344983,-9.906339086778862,-19.082180934228216
9.9,-28.07957098167409,-7.3352321117408055,-21.295589820311495
9.95,-26.287350400277298,-6.111335345986513,-21.806115772214053
10.0,-24.80593171233295,-4.838709340147089,-21.194441313731975
10.05,-23.06096478060374,-2.6699098693884045,-20.350091566537515
10.1,-22.258405068334707,-1.0313299046113062,-20.53706999166396
10.15,-22.424037138244756,0.2598223632798483,-22.657869320068674
10.2,-20.120018863003022,0.11539829415370015,-26.988038407783634
10.25,-17.780991154325314,0.4273299730012213,-31.68720934659155
10.3,-15.410377323148163,1.9168570861701189,-33.51369709697089
10.35,-14.391206817750849,-0.0795675710418712,-32.432226121215486
10.4,-16.255245099427025,-5.704190417337362,-27.495266092274505
10.45,-15.587322575326159,-8.763363355068968,-23.487031362955946
10.5,-10.210936857709147,-8.427793733094024,-25.0074504203454
10.55,-7.631473708757515,-8.649109618521324,-24.0159419835288
10.6,-6.520862385308838,-10.348372747654473,-17.48830986006145
10.65,-3.6080709252697774,-11.068583289080838,-11.826502382354516
10.7,-1.2783704819591655,-10.080305758347755,-7.732270400017403
10.75,-0.2831772068399092,-9.118163350855525,-5.807329171061399
10.8,0.13745103539632467,-9.356161968337396,-6.908968146661906
10.85,1.141547261302467,-9.399719345379292,-7.895450170529286
10.9,3.204740254223441,-10.532932057313747,-6.362486611676448
10.95,4.338501935829059,-11.74375090357405,-4.819919682835731
11.0,2.700863155182536,-12.252591675189572,-7.340008864065489
11.05,-3.120424545133023,-12.066525002660248,-14.96419021174536
11.1,-14.186941789988365,-7.741217294264252,-24.712220950876983
11.15,-24.76341259043587,-4.968034487547866,-24.76567954768411
11.2,-32.958868898218945,-7.547341196091235,-17.177967920993478
11.25,-46.44662234030386,-9.587496741423207,-12.786475801774142
11.3,-60.28171174353566,-11.976123986685842,-9.879308842694126
11.35,-72.64730217904219,-9.579924024111024,-5.63056914346408
11.4,-77.2329633540204,3.2389426553275578,-0.6408552253561041
11.45,-74.00523717495766,19.422948044303173,-3.869428705123782
11.5,-67.66982314011706,21.639688096187648,-11.653702165831392
11.55,-65.29958718331535,16.95914118239139,-14.750749714937303
11.6,-68.54255324973782,12.171216425503877,-12.238816589593771
11.65,-75.1642067140188,6.245419647463309,-7.6561383201037785
11.7,-78.2254160355386,5.26212581772792,-9.54274702417957
11.75,-75.48567272979612,9.201000324787758,-16.05238175369206
11.8,-74.77991180892876,9.097544769728438,-18.96706724059087
11.85,-75.97704260146828,7.765333773843278,-15.528964674652991
11.9,-76.2697186093465,7.050165307955533,-11.737560227413042
11.95,-75.05326603744825,9.035573770216937,-11.749648732026229
12.0,-72.6922231161918,11.119704119057262,-13.129313588950103
12.05,-70.58938093008665,11.009573228948291,-13.388339026696574
12.1,-69.58136848063819,10.539290744835423,-11.85737988679545
12.15,-68.42351170945973,10.44039969290586,-10.344275993792023
12.2,-66.19034875338738,10.830326012404328,-9.633802831983871
12.25,-63.95594326178596,10.770235886814167,-9.253581387990081
12.3,-65.87252061883713,10.372266516094523,-9.982812764329354
12.35,-75.60919916314073,13.456381249894731,-9.88128702388928
12.4,-85.0957119869708,15.69478450977885,-12.748120011882422
12.45,-91.91478558621952,17.66021085550978,-14.948639463135168
12.5,-97.8886699342668,16.1572860056983,-11.851614431413573
12.55,-100.40040237534478,14.959107834075702,-9.28933575354516
12.6,-99.55407750413615,17.18483495745109,-10.755494606786025
12.65,-96.90288443098488,18.8526236346359,-11.869363580609331
12.7,-95.62677149526493,19.00052701494704,-11.663041015852004
12.75,-96.36722203426115,18.00434159150927,-10.726112728604477
12.8,-96.71764690672624,16.300315369769905,-10.167287916286384
12.85,-96.44154788564335,15.959642779168288,-10.528558628077503
12.9,-95.94035831811111,16.405437286918474,-11.054428724371851
12.95,-95.16816237461381,16.838637872343025,-10.692055872333206
13.0,-95.12332639911241,16.64973023516032,-10.315520549520146
13.05,-95.3383477206562,16.013976097669875,-10.077680303620125
13.1,-95.4135791234716,15.682887698635312,-9.945089868018204
13.15,-95.09257130734781,15.806532349532967,-10.072020639193974
13.2,-94.57385120897929,16.38149364090567,-9.533009065357462
13.25,-93.9174568723664,16.90664153516965,-8.788438856357793
13.3,-93.46348895377947,17.215047065667243,-8.314659572859584
13.35,-92.94163880401942,17.569663509950512,-8.199696092365034
13.4,-92.53250104356749,18.22271982673949,-7.64073072843639
13.45,-91.75643119514942,19.451443852819295,-6.303451914049693
13.5,-90.44477832763519,21.188020767011288,-5.141025991390913
13.55,-88.51819285850026,23.085593964963874,-3.947637625402655
13.6,-86.23126352002436,24.799134519251922,-3.167665888066399
13.65,-84.57713143250875,27.130821420725795,-2.8284845271821015
13.7,-82.28204292695365,28.891819332100226,-2.704196786523776
13.75,-79.91480793523453,29.61748716501368,-2.542219926716406
13.8,-77.1314671317235,30.03055115870415,-2.4283865449718616
13.85,-73.33118646800108,30.932464387706123,-3.180298049712119
13.9,-68.69913698670155,31.78506771350006,-5.192631173270373
13.95,-65.80686211932677,31.855666024242336,-7.153958462386885
14.0,-65.42031748800213,30.883444872695488,-8.860559045860665
14.05,-68.10093768419289,29.122805575523753,-9.863458260814486
14.1,-71.21675242528916,27.171044861279437,-10.410767507949164
14.15,-74.56865307578506,25.648944344095355,-10.932283979091304
14.2,-78.35843382274317,23.913990101069896,-10.333081280145656
14.25,-80.2466513766741,22.974152606656876,-7.803933004903154
14.3,-79.95822729594441,24.668273605266773,-4.7829862568230155
14.35,-78.1363582548814,27.247395793096064,-3.1481270201054574
14.4,-77.04281464165192,28.708599272440992,-2.149412925927735
14.45,-77.27595046411335,29.28399272026506,-0.9016167914219185
14.5,-78.25329494397992,29.501538824588255,-0.20971847990243989
14.55,-78.92465177491722,29.715104039172246,-0.09998952766530435
14.6,-78.5673051725475,29.339336120997366,-1.197230183161015
14.65,-79.33004693994103,28.644379226588033,-3.470366418924529
14.7,-81.1019552136358,26.79652527148778,-5.806107777597371
14.75,-82.2770823169416,23.38629962516776,-7.540188796532457
14.8,-83.25778859077636,21.777073498355026,-9.058531665326782
14.85,-84.35644770478184,22.06272882696121,-10.57252917790905
14.9,-82.96890948164835,19.278089317957324,-9.937190407054821
14.95,-77.40110261486258,16.191927582188534,-8.54479167949796
15.0,-73.22882513964923,17.239249637264052,-8.862543348614683
15.05,-69.6429896371666,21.826307656547577,-10.73894421238526
15.1,-64.53259440885189,23.363531847282733,-12.527016080420692
15.15,-58.10189078690646,19.30156673131665,-13.092180426981743
15.2,-48.82585687252524,14.26153011381476,-11.763537701707412
15.25,-38.9845571731313,10.552675532866816,-11.780443923380394
15.3,-29.688181363952232,8.082126639109447,-15.351734346978706
15.35,-22.068944421936543,6.433895165183993,-18.73340422571255
15.4,-18.165541842609674,6.708906019528174,-17.326312872297695
15.45,-19.73941522890007,7.905467218438295,-9.207560926433656
15.5,-23.458398777532437,8.697096182140516,0.3830372673113115
