Time [s],Flexion(-)/extension(+),Supination(+)/pronation(-)
0.0,-14.585277085407773,9.865533960002786
0.05,-14.822961552863456,10.325202148535016
0.1,-14.820714041462836,11.025674838446939
0.15,-14.68774074911648,12.135660030332444
0.2,-14.70229794004707,13.688520836332332
0.25,-15.203608095567352,15.477405700154188
0.3,-16.40106906032911,16.426229546064008
0.35,-18.37578428497386,16.024971978441673
0.4,-20.833997217276533,14.60471462591489
0.45,-23.33037449701061,12.862995248638862
0.5,-25.72455746030961,11.806883868965357
0.55,-27.717703415569773,11.491287154825757
0.6,-28.802271199363574,11.30230361030712
0.65,-28.57434031949098,11.498048272584873
0.7,-27.054680399903425,12.959026326113506
0.75,-24.445732357995,14.965434402360405
0.8,-20.77399447197037,15.774645289022942
0.85,-16.591454942763047,14.897192546299681
0.9,-13.088511681437451,13.350654740343169
0.95,-10.8657466114859,12.922405759288925
1.0,-10.086629480056683,13.812299141688358
1.05,-10.81238453216983,14.420517435946644
1.1,-12.585388407646441,14.5471288794561
1.15,-14.771970746950586,14.881511524165012
1.2,-16.95863956618726,14.843047772918819
1.25,-18.809069636411916,13.44303955581574
1.3,-20.415751263433297,11.346491924884347
1.35,-22.008048050742516,9.65606509244027
1.4,-23.634076647792764,8.392057735435664
1.45,-25.000679711724732,7.1112122044874715
1.5,-25.780662029140117,6.354376140508075
1.55,-25.69585847041402,7.009286521327732
1.6,-24.658019032412113,8.860083764236432
1.65,-22.50419064886683,11.358974096525872
1.7,-19.345027288313002,13.731439449046611
1.75,-15.91853088848031,15.279992835104297
1.8,-13.083736318038165,16.5322177701421
1.85,-11.038994980895392,18.18374862831923
1.9,-9.630161099776435,19.73402468632371
1.95,-8.929132036307095,20.409759086663954
2.0,-9.113886624404493,20.421143098591585
2.05,-10.08168707013168,20.66782479046559
2.1,-11.57457657049272,21.910178202845668
2.15,-13.316928809143944,23.546632989330373
2.2,-14.984000467033917,24.217708062917357
2.25,-16.5977482999481,23.835387992666526
2.3,-18.48826167037201,23.049644815183402
2.35,-20.99818936694557,22.310683308795806
2.4,-24.338508914846035,21.34435639517836
2.45,-28.182402501642287,19.46000954475196
2.5,-31.23112692947056,16.777675836068834
2.55,-32.01478312622468,13.70359473581321
2.6,-30.342187201399916,10.93530399394784
2.65,-27.069038806259236,9.643940080973262
2.7,-23.107636777078532,9.434179639182892
2.75,-19.16472652085242,8.590000624324349
2.8,-15.751666481799596,7.113762447017492
2.85,-13.651161690561457,6.873583478645574
2.9,-13.14483386011925,8.51753841505086
2.95,-13.725949468091958,10.601285798489238
3.0,-14.913163968387417,11.290040942360925
3.05,-16.454829403495914,10.745694388366532
3.1,-18.087601379528177,10.347629389734118
3.15,-19.331026676139818,10.70697734522336
3.2,-19.66079095915423,11.113877169319936
3.25,-19.063721815130915,11.37328312596884
3.3,-17.981336285421747,12.282187822737807
3.35,-16.78917533940851,13.289646961866781
3.4,-15.70457417729227,13.700935464148413
3.45,-15.08597484162489,14.78062028009785
3.5,-14.936082333953243,16.530078726590013
3.55,-15.11121043683344,17.24040650934852
3.6,-15.460045024019111,16.920367855065603
3.65,-16.062484712676504,16.927827916720833
3.7,-16.928442689334876,17.84841191346174
3.75,-17.875625535879955,19.041320268361197
3.8,-18.845677381737804,19.640426018504296
3.85,-19.693970656900795,19.22483257783695
3.9,-20.03414753566605,18.030933076273687
3.95,-19.687508979035524,16.22861214841896
4.0,-18.90381469585133,14.653270245962645
4.05,-18.057371634633032,14.696663809191357
4.1,-17.703926849447914,16.072678306848744
4.15,-18.066233433858073,17.146534901505984
4.2,-19.212082632174205,16.67210276933684
4.25,-20.924301317923,14.560225106597718
4.3,-22.42064923503677,11.864499977804815
4.35,-22.986977999342404,10.484839542297053
4.4,-22.426638828953468,10.72467832777154
4.45,-21.072171552449284,11.74786673592076
4.5,-19.481355424089728,13.296850810791758
4.55,-18.276280592626154,14.558049647784033
4.6,-17.614341950444082,14.562799894421726
4.65,-16.989449068885957,14.194981489526494
4.7,-15.975471700750001,15.14047180471323
4.75,-14.621077684620616,17.054933369523763
4.8,-13.418611194599261,18.229606436533032
4.85,-12.868930148847609,18.19528448815913
4.9,-13.295879755137694,17.8036830216194
4.95,-14.77626226616309,17.733696244365618
5.0,-17.477575867763576,17.68250874836824
5.05,-21.484881939942124,16.261169074461602
5.1,-26.303493020579385,13.70042341581638
5.15,-31.223690033360104,11.731817767130483
5.2,-36.00970616236013,11.44449890236172
5.25,-40.6614277953879,12.402754611439535
5.3,-44.83912440661162,13.402183496994619
5.35,-48.44710190361813,13.785209064713804
5.4,-51.79908825081391,13.583826345086335
5.45,-54.98242378949397,13.187242971593294
5.5,-58.03582576368942,12.845030294093672
5.55,-60.9962989160934,13.055654818181582
5.6,-63.402377105718685,13.014094966736101
5.65,-64.83729608253897,11.817101673732907
5.7,-65.42266210454817,9.628559295684799
5.75,-65.55218307072735,8.944599101355903
5.8,-65.59865710560732,10.760005099859919
5.85,-65.65715927464663,12.236275485247205
5.9,-65.58999439284227,11.540907893887196
5.95,-65.30113843121846,11.548908942869588
6.0,-64.58999337136679,13.781860642101266
6.05,-63.453292906318836,16.54543185269966
6.1,-62.0617735936659,19.379612722668973
6.15,-60.77017472587479,21.731163289562932
6.2,-59.77597009148425,22.646477069161794
6.25,-58.58627908436863,22.972207455803808
6.3,-56.516004422262235,24.217511688600947
6.35,-53.719036829238924,25.358291540992788
6.4,-51.166952142833345,25.992386687226595
6.45,-49.379163317306045,26.693845178645702
6.5,-48.801167738021235,26.712376362374386
6.55,-49.06956415951678,28.176313474540603
6.6,-51.56056676854369,29.74695308141269
6.65,-57.50241787504376,27.604843560106207
6.7,-64.72962300165335,23.03678661285641
6.75,-72.47565957333084,18.67793783887644
6.8,-78.89155134153924,14.814749689266025
6.85,-82.31944662557652,11.634889052207813
6.9,-84.11258771157762,9.673938174410464
6.95,-85.37870214307839,9.018781703198687
7.0,-85.54381213959326,8.701634377321922
7.05,-82.80928680894057,7.881341592615818
7.1,-77.69029774390803,7.7107346099863605
7.15,-72.12540775972698,9.906815290981509
7.2,-67.22302752363156,11.823508290816564
7.25,-63.80614676187383,11.42976501005035
7.3,-61.84052493580998,10.679799044791599
7.35,-60.26843257397762,12.227350117871957
7.4,-58.4108344480379,14.286978070646295
7.45,-56.09391186974488,15.686069457449687
7.5,-53.20205589155759,17.537502335278013
7.55,-50.19410067368453,20.130906467146744
7.6,-47.094560924673814,21.684973380440784
7.65,-44.25716851469303,21.45670697743514
7.7,-42.63439403776911,19.69582911414332
7.75,-41.84127957067561,18.07763844013315
7.8,-40.49326032953621,17.059407368370618
7.85,-38.18674643980406,16.38664125168493
7.9,-35.86248398273081,15.561147093115734
7.95,-33.89253456778406,14.027341391089896
8.0,-32.1484255043804,13.750113413709512
8.05,-30.272314388179055,16.485315408655246
8.1,-28.75845893319218,19.83639610295265
8.15,-28.764389399580697,20.146536168931156
8.2,-30.186190718423543,18.621150883089566
8.25,-32.17868062739637,17.331898376335367
8.3,-34.84341236700907,17.62441176844647
8.35,-37.46775204737212,18.3822814562862
8.4,-39.382790806078084,16.813900998093967
8.45,-41.304430817404594,14.041833962194596
8.5,-42.5753880120628,12.29464400480575
8.55,-42.46583776598233,11.44815934812159
8.6,-40.62196752788889,12.024793214726568
8.65,-37.36814137970569,12.139150811266111
8.7,-33.61238282489862,10.776777967806385
8.75,-29.148223930806907,9.012831967794288
8.8,-24.37071394927864,7.108293886649595
8.85,-20.453048268983046,4.677768830262096
8.9,-17.4541232721552,5.009100019060738
8.95,-15.08967103570572,9.10357385265183
9.0,-13.238603384960383,14.568685085316806
9.05,-12.903658478311133,18.232396758407532
9.1,-15.718658895053423,20.45614439790031
9.15,-22.425633978084488,22.50719236758447
9.2,-31.888304593306916,23.65597222296669
9.25,-41.603478761418636,24.07352548208306
9.3,-50.08251307738515,21.938949714845702
9.35,-56.40351657489883,18.444100630998935
9.4,-59.44119442202626,13.347144370372233
9.45,-58.35637334688613,7.1663029181154645
9.5,-53.991915742773536,4.118199402126912
9.55,-47.96495731555317,4.324719807343462
9.6,-42.01183249251004,5.262456223669723
9.65,-37.32013210425341,7.515431487244786
9.7,-34.09431958666988,9.836156667938686
9.75,-33.111113435122455,10.428084312665874
9.8,-34.23723820075039,11.80142556009103
9.85,-37.117764073959655,15.268791248283469
9.9,-40.01874915305538,18.614187722172108
9.95,-41.59634388507655,21.393061615539573
10.0,-42.48437108519323,24.249727503982974
10.05,-42.797136736708275,27.415479804303803
10.1,-42.75721522190911,30.731836712741515
10.15,-42.71023698164742,32.82839844321506
10.2,-43.02167229854711,33.34274701597158
10.25,-43.69017098614997,32.64200718790425
10.3,-43.598841386657405,27.960926163553307
10.35,-41.53024183003147,21.239644144795097
10.4,-37.62586728420102,15.627346323836695
10.45,-32.79208666467747,11.11540165042812
10.5,-27.93424278700835,8.830822488995748
10.55,-23.18192667589999,9.368032860171157
10.6,-17.931908979560966,10.141679458920239
10.65,-12.816480499820496,10.92119311789105
10.7,-8.649528765868055,13.737734134233417
10.75,-5.550208370992489,17.36240339135247
10.8,-2.2537310481215926,20.78357085368284
10.85,1.6063010516415708,23.753494144863392
10.9,4.3472380750977,25.91169842191707
10.95,6.492602824081366,29.253351857794325
11.0,9.020400253448933,30.742036954872578
11.05,12.726038394444668,32.7203454932021
11.1,15.51764798038317,36.99351428638789
11.15,12.934042456350145,47.23925458340023
11.2,0.694379948375949,56.542815776322065
11.25,-17.327213076938797,55.818840079352725
11.3,-38.386924987354156,51.244130419347755
11.35,-56.81016336402845,46.014283445493355
11.4,-61.68839440468427,27.40804131891009
11.45,-47.98552723429734,18.990320688751595
11.5,-25.285518274806343,27.137718577793976
11.55,-13.252627991213014,23.70721579107446
11.6,-9.893507278204407,28.4166350980783
11.65,-7.66858858353154,32.33323207129008
11.7,-5.693872081112991,29.371399381653937
11.75,-5.156679697555651,29.89605202608758
11.8,-4.099105964130764,31.73193649546156
11.85,-2.583193318053886,33.35451870998971
11.9,-1.4091632624321115,33.93422492932928
11.95,-0.8131244763853883,33.27303660588844
12.0,-0.14287225121321304,32.44595990987709
12.05,0.0591604613565182,31.657299856668878
12.1,0.46316655878117924,30.155763716886398
12.15,0.7083165832192136,28.771768463359884
12.2,0.9494519016674912,27.15350404819131
12.25,1.1131736423161738,28.244650746999895
12.3,-0.03984929224951136,28.326588518616827
12.35,-12.256004022492775,27.231775975064902
12.4,-34.262556788086734,4.286268805253246
12.45,-38.882031572812664,-1.4725475787815616
12.5,-35.73758318797885,1.2703456619253677
12.55,-31.88809893742093,1.1699720013828634
12.6,-28.862995439786143,3.0568544517435745
12.65,-26.095369451094083,4.0671803555793495
12.7,-23.10335025449755,2.7023569848376177
12.75,-20.63458264717243,2.891927419470243
12.8,-19.136044684977666,4.4240569697839875
12.85,-18.26330450344489,6.179058199459055
12.9,-17.681122519477142,6.262916971647945
12.95,-16.67412803702586,6.188157174775567
13.0,-15.567083553147294,6.549130067663209
13.05,-14.907481097276158,7.196178323064329
13.1,-14.813054802255298,7.416669509680028
13.15,-14.200315827953967,8.392920488000463
13.2,-13.726228664923786,9.389055703658947
13.25,-13.071775073315358,9.847457070567495
13.3,-12.289486655653869,10.977282977105478
13.35,-11.328829145979602,13.199443382598428
13.4,-9.842623572616915,15.997775904642738
13.45,-7.6082755278889795,19.06801607019358
13.5,-4.022647019738667,21.878586384962546
13.55,1.4542029377447272,24.413233604546292
13.6,6.785625113897988,26.40772430010848
13.65,9.165960991504592,27.962490921007664
13.7,9.426236410562272,30.78526572860034
13.75,8.67049535293429,35.6774183192915
13.8,5.281149018299903,42.05049711994469
13.85,0.8033159154424439,46.59576212850435
13.9,-4.085543105850145,45.054142702604
13.95,-5.4445290379410025,43.2265802348847
14.0,-4.237503464778546,42.51304067989789
14.05,-4.526286678591232,35.00299336378935
14.1,-7.978004980011794,12.149673407193852
14.15,-18.844283371300317,-5.401509431614168
14.2,-32.828940999315186,-7.555504763415631
14.25,-43.650418361274205,-5.064571848806742
14.3,-51.6349105621682,-9.512727570243577
14.35,-57.26966105381645,-10.784309909996681
14.4,-62.26101892832259,-3.9470294804363673
14.45,-66.4500275581135,0.7681214538712778
14.5,-69.87275360308799,3.2902322321064044
14.55,-71.4156169766551,11.108767209609539
14.6,-69.16641567535628,21.359951084133186
14.65,-64.16097951103761,31.702688046296554
14.7,-57.011465377651945,37.8857551148334
14.75,-48.63361290014626,38.24664838204224
14.8,-40.46885551521507,36.82679588604807
14.85,-31.105080603820284,33.78554564373197
14.9,-21.004467121400452,38.65510791689588
14.95,-10.997281681903212,51.719424083597424
15.0,-3.713599479327329,55.16685312317957
15.05,-0.13189923480063742,47.35439521885046
15.1,1.9590158155538406,46.64806273384498
15.15,5.779875172123197,49.72599625050737
15.2,9.236945272205292,46.98873321853705
15.25,11.378095098104474,44.64232289268876
15.3,13.584753748483257,47.07886285692786
15.35,14.829419213783009,50.15992943567315
15.4,14.75958637589894,50.16993258514118
15.45,14.06694925294506,47.45915119218459
15.5,13.453947649394115,45.08697357210998
15.55,12.275798735000807,44.171875348908195
15.6,11.249288941910855,43.565295314991715
15.65,10.489083834562162,43.17069932452972
15.7,7.680870061719064,42.01846876099335
15.75,3.5796813593441126,40.52068042991463
15.8,-2.473957897093782,38.53614167230226
15.85,-10.663631303811195,36.98499174762657
15.9,-18.218642013880544,34.56313074512773
15.95,-25.524350346339613,27.25917702682274
16.0,-29.86888828232325,17.25455519709391
16.05,-34.564621896727274,5.760134208083576
16.1,-37.51748935228569,2.507173933859596
16.15,-36.9340568998471,6.00756509395135
16.2,-32.45652021490445,10.420665419495663
16.25,-27.707393901637555,5.689880794507074
16.3,-23.662579712841204,3.2341334694409487
16.35,-19.559753824446492,4.532523641109419
16.4,-14.536741141392344,5.8783643208199186
16.45,-9.315405543182843,9.765066115935687
16.5,-6.167741781807398,11.21885902336106
16.55,-4.6822138760161796,10.688916848810294
16.6,-5.082956800211164,10.556055659750397
16.65,-4.88957254702443,9.798796510256574
16.7,-4.550571338766633,9.648044405477652
16.75,-3.6263538934300366,10.253220599432765
16.8,-2.674791378696093,11.994011180851974
16.85,-1.2314150308400797,14.537556135233478
16.9,-0.3157527132966073,16.066925942763486
16.95,-1.0054909890583217,12.060261487406933
17.0,-7.326803336329987,0.47617201085954874
17.05,-14.46764481946217,-8.202742710811982
17.1,-18.628269124957352,-9.545925113531998
17.15,-22.132922773779043,-13.164615513326261
17.2,-25.807687193645215,-16.31243131805137
17.25,-29.962193779631253,-19.720951490249522
17.3,-34.52640461863281,-23.969690007314234
17.35,-39.79129813853087,-26.313164653853736
17.4,-45.52466168458931,-28.901750716148882
17.45,-50.424302892384205,-30.486879373625577
17.5,-55.608875878046305,-32.520781941559854
17.55,-61.728706899487605,-34.05516657766692
17.6,-68.69111658429036,-35.02487526173279
17.65,-75.36210148879678,-33.728527762785504
17.7,-81.32211441827359,-31.80216452805719
17.75,-85.93056526196156,-30.491104755211413
17.8,-90.4506172615283,-26.381531970600232
17.85,-91.75509271082579,-20.33647831295181
17.9,-89.82888905428864,-17.333465773133188
17.95,-82.27542052580519,-16.852845657016385
18.0,-73.09354975636391,-13.740415712401113
18.05,-63.501908261654535,-12.289687039822871
18.1,-54.09116265583786,-11.787193604069623
18.15,-44.868698263872695,-8.883146622824462
18.2,-37.27042417448626,-2.2758882940712923
18.25,-30.707246273001875,3.204494615911578
18.3,-24.909166225733557,4.79101976386842
18.35,-19.793957135967656,4.995575763782463
18.4,-15.706083223089898,5.624713607868451
18.45,-11.94495930084437,6.5043852252919105
18.5,-7.632058348085411,8.308578687039448
18.55,-4.276311585829606,8.083737429350673
18.6,-1.4437886819112682,4.297250564355541
18.65,-0.2672802679177272,-2.9414687047443353
18.7,0.5300842525294457,-10.010997659706431
18.75,-0.03341044590445461,-13.799818701715193
18.8,-1.1853611225867082,-13.44891913237933
18.85,-4.197942362461929,-12.098546511461258
18.9,-13.803507504721836,-12.630380353601126
18.95,-26.110786723019224,-9.958595586930803
19.0,-36.27595275766735,-8.881706570305221
19.05,-43.389582521736685,-9.95954219941839
19.1,-50.39673176985755,-5.640528281326734
19.15,-55.709857494798875,-6.570396832459165
19.2,-58.57748487865437,-11.45456326501771
19.25,-60.087774377307795,-10.73775199032451
19.3,-60.372797182086984,-7.380385325244618
19.35,-61.636048333789155,-5.52713534328291
19.4,-63.43267961027676,-6.2629515430677705
19.45,-65.7058884197286,-6.761396175903044
19.5,-68.02512490311898,-5.811398900981313
19.55,-69.73411713640492,-4.954198473677915
19.6,-70.3414101512567,-5.021398329372081
19.65,-70.3015822510075,-5.206990860011856
19.7,-70.3583824188116,-5.170376984050418
19.75,-69.16124599772637,-4.319513892815661
19.8,-64.4294092160745,0.5999319257609936
19.85,-56.29458735251738,7.181255795209363
19.9,-47.84226485101065,12.49828003577937
19.95,-39.39351896776168,16.277938733235207
20.0,-31.745392974354704,18.439842989265337
20.05,-24.514243029570952,16.217430395020074
20.1,-17.803797329026867,15.503853656546188
20.15,-13.373441661960575,16.811401820308557
20.2,-11.38761755032976,19.017031639171716
20.25,-9.963727986340512,20.700406317036805
20.3,-8.188280937550479,24.28024034423061
20.35,-6.954893696544171,26.698141057825875
20.4,-6.868935830437656,27.57271377454223
20.45,-6.45222591529674,29.162740434736452
20.5,-5.753307966878678,30.921939780947067
20.55,-5.663481586882787,31.82308114784117
20.6,-6.566777124456331,32.30313940036842
20.65,-8.00836199791383,31.037254044277446
20.7,-9.670940836774237,28.988937983145377
20.75,-14.178816711683838,26.837307743843944
20.8,-20.74298262408291,22.90715563615133
20.85,-27.16900798100556,18.066680758953083
20.9,-32.377683313160375,12.541535253341378
20.95,-37.406775854189576,8.823336421265935
21.0,-41.1834073180352,5.961190830577807
21.05,-43.98804677416565,1.3228541937186196
21.1,-46.18509443869581,-3.698347199023473
21.15,-48.19637678977885,-9.915703823469983
21.2,-50.49845881366038,-17.124804184031508
21.25,-52.659871480011944,-22.42074665469915
21.3,-55.82246623675615,-22.375534606403598
21.35,-61.681393163661426,-18.23612824365888
21.4,-69.31481183654797,-11.754467389413021
21.45,-71.79238345631688,3.7060524158367407
21.5,-61.48243557034857,28.984344690056755
21.55,-45.463968665208,43.488526608330005
21.6,-34.09580393973052,40.851081790768326
21.65,-27.49227891662885,35.005926533772076
21.7,-17.950961700909776,33.40182636254454
21.75,-10.952703295922795,38.512792120182176
21.8,-7.493583358972548,43.68039145848781
21.85,-7.666292464655898,44.875382770507294
21.9,-10.91004821731563,45.56588146555136
21.95,-15.235851456715242,46.00306901112113
22.0,-19.567960395484256,45.27026218692944
22.05,-23.76578232976883,43.12297931402214
22.1,-26.72725730153665,41.13251105127224
22.15,-28.173934593902864,40.02110450210078
22.2,-27.854544136377445,38.36047320112793
22.25,-26.16930087119002,37.30199473097016
22.3,-23.638223908497928,37.51382665633957
22.35,-22.28807140412483,36.964482052632704
22.4,-21.508092703061557,35.00555312474962
22.45,-22.491167413620833,33.360958905612456
22.5,-22.37754811425173,32.486827536763556
22.55,-20.74082605342266,30.42964333311715
22.6,-17.595181453397945,28.515221068353828
