Time [s],Flexion(+)/extension(-)
0.0,-1.136321057262897
0.05,-1.6565048647505565
0.1,-2.6518661644602495
0.15,-4.372968781576827
0.2,-6.9258872541208545
0.25,-7.27443921335847
0.3,-6.238600141909738
0.35,-4.587622159464917
0.4,-3.507425120889253
0.45,-3.3109876351292575
0.5,-4.6184867786395865
0.55,-8.091504188278963
0.6,-11.787485844604332
0.65,-14.067915271069717
0.7,-15.081692970968705
0.75,-13.429714709294215
0.8,-8.730761262676461
0.85,-2.4996604083216716
0.9,4.205739549103281
0.95,10.80249236921535
1.0,16.357263618324787
1.05,20.111789428065332
1.1,21.988034612891997
1.15,21.824129015861523
1.2,19.689617015146617
1.25,16.072190460211633
1.3,12.758689765079835
1.35,10.372949287063964
1.4,8.567907573157125
1.45,7.217252108018197
1.5,6.840368650848841
1.55,7.356700733088283
1.6,7.967325875100098
1.65,8.895791679724374
1.7,9.039843317374991
1.75,7.589397554910607
1.8,5.427194384612209
1.85,3.03128415775965
1.9,0.8498845111351495
1.95,-1.0669817107715274
2.0,-2.818407078928906
2.05,-4.262248054139921
2.1,-5.725287295033919
2.15,-7.411951497464974
2.2,-9.105468475242615
2.25,-10.462279866658422
2.3,-11.672259986562324
2.35,-13.404296516812675
2.4,-15.865624535311238
2.45,-18.034242348310087
2.5,-18.614804067042606
2.55,-16.65220861244631
2.6,-12.661183066359722
2.65,-9.01860258502476
2.7,-7.609240373717697
2.75,-7.948182005868953
2.8,-8.975919786777327
2.85,-10.53144990011816
2.9,-11.746478175639195
2.95,-12.417860759185507
3.0,-12.59104684586271
3.05,-12.025069749298595
3.1,-12.965061237694604
3.15,-13.014617297686655
3.2,-12.559389689093527
3.25,-11.7331998716271
3.3,-10.574556643134724
3.35,-9.988004916957253
3.4,-9.015223006924867
3.45,-7.492307938099766
3.5,-6.63243955937228
3.55,-5.78923818587576
3.6,-5.057063902950398
3.65,-4.339776586742592
3.7,-3.707716468526964
3.75,-2.8676630485008117
3.8,-1.669356586716337
3.85,0.11027227892696775
3.9,2.9767899579299706
3.95,6.911866003136841
4.0,12.037909224419069
4.05,18.04396048689737
4.1,24.102803394289197
4.15,29.253262934327285
4.2,33.09384829426961
4.25,35.118559824102896
4.3,35.687777828897964
4.35,36.45614914109808
4.4,36.57550492451519
4.45,37.63046478869576
4.5,40.36028581914988
4.55,41.216163846772936
4.6,39.45787729468202
4.65,36.577966409168056
4.7,32.31702222629321
4.75,26.3372728560959
4.8,19.15269623176636
4.85,12.28066437512569
4.9,6.554142159415192
4.95,2.027246145154465
5.0,-1.5817735103741437
5.05,-2.5189593209342585
5.1,-0.8747528400548061
5.15,0.6886731471245643
5.2,1.0599603232028438
5.25,1.3193590445204375
5.3,2.0144363982979443
5.35,2.5945716395093137
5.4,2.878561573762585
5.45,3.1142840879471607
5.5,3.4414831205825247
5.55,3.9902000718170556
5.6,4.647670572343831
5.65,5.350688144911626
5.7,5.798891856936942
5.75,5.805097438489417
5.8,5.743089847820597
5.85,5.870057083593014
5.9,6.75842493602252
5.95,9.265493822203611
6.0,12.489651989328891
6.05,14.971437338508613
6.1,16.979369973254748
6.15,18.356973078809983
6.2,18.272218267544034
6.25,18.314696041489253
6.3,20.160223491555605
6.35,24.00208270720215
6.4,28.98859889485724
6.45,33.735670180167666
6.5,35.20326977125461
6.55,32.43354959033955
6.6,29.66453043918202
6.65,26.565048693205288
6.7,24.02109913484073
6.75,21.34591323043554
6.8,18.413559964524154
6.85,14.840395527028505
6.9,10.656056194285348
6.95,6.511133167380371
7.0,3.408054098762516
7.05,2.789727152584831
7.1,3.93771331097608
7.15,4.580115383490534
7.2,5.3926753030424734
7.25,5.238571116283594
7.3,3.5826789097018787
7.35,1.0540469673264061
7.4,-1.9517973142947074
7.45,-4.719155666452703
7.5,-6.395284310239008
7.55,-5.884211925279851
7.6,-1.5864618840314164
7.65,5.808849728126012
7.7,10.595114482585606
7.75,9.575412425262439
7.8,4.715213258016729
7.85,-0.22718378034428768
7.9,-0.3627846594575756
7.95,2.7006443529386153
8.0,5.669476401502192
8.05,7.774308842302302
8.1,8.630238921423166
8.15,8.532603462233755
8.2,8.926825500077769
8.25,10.42875692002088
8.3,13.038750665464644
8.35,15.339777735172193
8.4,16.92797597723043
8.45,20.27022780096167
8.5,25.92200520417725
8.55,33.4105981950967
8.6,38.91624682221945
8.65,39.460554282204676
8.7,33.816722460994285
8.75,22.959478845600017
8.8,12.627868234834288
8.85,8.756774375812295
8.9,9.292238888860552
8.95,14.784440839138377
9.0,21.86023606501317
9.05,27.121787702496093
9.1,28.38326131947966
9.15,31.750564940009134
9.2,38.1179762573115
9.25,42.41776994488304
9.3,39.99696910971747
9.35,29.614472630465045
9.4,18.488681179792344
9.45,12.95899223240958
9.5,16.190233505049928
9.55,18.95448896929534
9.6,22.76191615033808
9.65,27.092519933913973
9.7,28.259218854986695
9.75,30.901271717423285
9.8,33.05655714062784
9.85,33.97140779638428
9.9,33.571112346736115
9.95,32.88192085754023
10.0,31.777071880715447
10.05,29.048014405843805
10.1,23.268634871353868
10.15,11.997277428942374
10.2,3.954731242611706
10.25,5.591838163013601
10.3,11.484794792958972
10.35,18.98803145092802
10.4,28.44513627329421
10.45,29.193218854643973
10.5,19.349979316448625
10.55,9.556509049978864
10.6,1.215315570097791
10.65,-5.162815296491392
10.7,-8.51378927076581
10.75,-10.108254817171227
10.8,-9.562961662760015
10.85,-8.36637560926925
10.9,-3.0613167610748007
10.95,9.163598482498786
11.0,20.93270938165173
11.05,18.03779732501215
11.1,-1.5010271338498926
11.15,-21.84779508030862
11.2,-34.76826843841755
11.25,-27.04956348521598
11.3,-2.188447778789498
11.35,25.261100920614002
11.4,47.26691158582479
11.45,49.516533682903706
11.5,45.60561419290034
11.55,48.967267024960044
11.6,56.290094685124174
11.65,63.7269982265707
11.7,65.11171827302904
11.75,61.690157060584326
11.8,61.505601305988115
11.85,65.1548907806969
11.9,67.57637635027693
11.95,67.22333253028312
12.0,66.13335564768626
12.05,66.25051781176602
12.1,67.86654620148312
12.15,69.52225564379124
12.2,70.24261435184819
12.25,69.6488788143681
12.3,67.8263790747707
12.35,65.10493681013315
12.4,62.435072172065325
12.45,63.33999408041417
12.5,68.51981926333094
12.55,71.81115840461815
12.6,71.36321587009044
12.65,69.6787449603526
12.7,68.93151980134282
12.75,69.17408485275898
12.8,69.45887710935678
12.85,69.40292440105677
12.9,69.14552731563808
12.95,68.7995420936298
13.0,68.37046106980706
13.05,67.98070683473928
13.1,67.6655788520008
13.15,67.55456007056314
13.2,67.7912885631982
13.25,68.40609771122412
13.3,69.2334578930938
13.35,70.39470362622416
13.4,72.07256720313477
13.45,73.88827684849794
13.5,75.70250641872947
13.55,76.71548684157892
13.6,76.95817494207836
13.65,77.05410863789702
13.7,76.82976803055998
13.75,76.90241736445846
13.8,77.42682090059898
13.85,78.40379482571205
13.9,78.90851772365141
13.95,79.52383039305901
14.0,79.81705863700265
14.05,79.76328246326817
14.1,78.820381370728
14.15,78.0055415569864
14.2,76.90684179552434
14.25,75.49934494269132
14.3,74.5394119702125
14.35,73.190571249314
14.4,72.31283376874593
14.45,72.65681215496085
14.5,73.28748085899561
14.55,73.51425907376242
14.6,73.45003293117024
14.65,73.78498156073789
14.7,75.34257913682302
14.75,77.24955265564903
14.8,78.05442930591323
14.85,78.44044867015488
14.9,78.73616750716403
14.95,78.92559617105941
15.0,78.39465979102647
15.05,72.91334887217998
15.1,65.03050555996978
15.15,52.58088922677508
15.2,37.72315020188462
15.25,24.60487801958648
15.3,19.157898931364173
15.35,16.750509379999272
15.4,16.17138939391318
15.45,20.51982691825302
15.5,28.2703564741166
15.55,37.88540558969945
15.6,44.68025296484765
15.65,45.47282106117133
15.7,50.55406304437298
15.75,58.12230387252538
15.8,63.49248400261842
15.85,66.61582644525775
15.9,69.63393568160954
15.95,71.88100030902976
16.0,73.39457006827591
16.05,74.54180501715855
16.1,75.36787670646457
16.15,76.05575763582682
16.2,76.798857330248
16.25,77.35731653234538
16.3,77.64649540176177
16.35,77.62443094106715
16.4,77.3790119711132
16.45,77.01342497119256
16.5,76.81279257696814
16.55,76.15756151503204
16.6,75.27202889974667
16.65,74.58955787199938
16.7,74.68305249262131
16.75,74.80402568637773
16.8,74.66553745094667
16.85,74.13779252598634
16.9,73.49671240523358
16.95,72.93389473575631
17.0,71.80118007315447
17.05,70.76953237950062
17.1,70.02982653372989
17.15,69.33490370147287
17.2,69.27572347255594
17.25,69.26786271042869
17.3,69.48085411548593
17.35,69.88488597436346
17.4,70.50838899385282
17.45,71.39220350159427
17.5,72.54620396254994
17.55,72.38404399555941
17.6,70.53958714275936
17.65,67.98343971507153
17.7,65.94868580265236
17.75,66.49755054166056
17.8,66.122610800012
17.85,65.40922557509299
17.9,63.15700379795659
17.95,59.759220700696034
18.0,55.53908699445106
18.05,49.98678517455472
18.1,43.7087255938873
18.15,37.2396271568752
18.2,31.821485181349896
18.25,27.36886488540496
18.3,22.419845314907572
18.35,18.31611616189977
18.4,15.547824780524097
18.45,14.526420843483383
18.5,14.5284692909552
18.55,15.143487084689342
18.6,15.800363871474687
18.65,17.49229304354549
18.7,18.645768704537378
18.75,20.31948141171299
18.8,21.254777250979938
18.85,22.24697948741556
18.9,23.290515226774225
18.95,25.33841904417788
19.0,28.0592166493334
19.05,32.092444581421155
19.1,37.06393792017759
19.15,41.948595970499476
19.2,46.15521583256317
19.25,49.64731357977891
19.3,52.61731004022772
19.35,54.76420083732214
19.4,55.75265915995468
19.45,56.49205599335614
19.5,57.50327620042876
19.55,58.13181553372002
19.6,58.99641483317716
19.65,59.55382468410635
19.7,59.68013153570998
19.75,59.44442100456804
19.8,57.756703159359084
19.85,54.708064031893855
19.9,48.62875192866647
19.95,41.19191713589207
20.0,33.21854336536094
20.05,27.258847077429518
20.1,23.479071631106375
20.15,20.400896679000958
20.2,19.106876523894044
20.25,18.993238979433173
20.3,19.66520162858955
20.35,20.584519048234807
20.4,20.655898665314375
20.45,20.786002268379853
20.5,21.82766865116595
20.55,23.124947258362578
20.6,24.462760508729335
20.65,25.98661882820295
20.7,27.742302920943693
20.75,31.128946057176034
20.8,35.91165755508407
20.85,42.035323532415404
20.9,45.93123376176769
20.95,48.68130953056883
21.0,50.7377173931624
21.05,51.147404198627925
21.1,52.60055964179298
21.15,52.74344344922531
21.2,53.330865972932514
21.25,53.50103601703224
21.3,52.76098455464411
21.35,51.68181565767901
21.4,51.030824085158535
21.45,50.88715671814526
21.5,49.80912125105504
21.55,44.75446290369956
21.6,33.04095410599841
21.65,22.488030060899707
21.7,15.473950854331964
21.75,13.314420522429478
21.8,12.910004028248046
21.85,13.624990471359272
21.9,14.103602229100419
21.95,14.972211636508645
22.0,15.480064601596291
22.05,16.457181914960934
22.1,17.704417516087744
22.15,19.878792500673338
22.2,21.50535140379849
22.25,23.57045159137792
22.3,24.599210902903593
22.35,26.46242332261786
22.4,28.099800592351194
22.45,28.46169824621593
22.5,27.336455339339725
22.55,22.643864533831824
22.6,17.443626748393747
22.65,15.415389598428826
22.7,15.24942640584898
22.75,16.10898280432197
22.8,16.354033445591234
22.85,17.25135848239906
22.9,17.440423097187402
22.95,11.892698297186756
23.0,3.484304738455538
23.05,-4.880573529464144
23.1,-8.52790189896402
23.15,-5.6858054700062635
23.2,-2.675971156622248
23.25,1.9394087972987193
23.3,2.2063846588848293
23.35,3.4021047515194107
23.4,7.7202422240455055
23.45,11.71161884179644
23.5,15.83686523928481
23.55,20.895640258760775
23.6,25.486806372740517
23.65,29.18150952621365
23.7,32.55911388160923
23.75,34.352049549863565
23.8,35.74456873498189
23.85,36.929937305886305
23.9,38.628140402996806
23.95,37.388231384420365
24.0,33.37910879212588
24.05,30.37220307155423
24.1,27.465046996222874
24.15,25.219519353177645
24.2,25.378632040753757
24.25,24.964716419837394
24.3,25.204205766680047
24.35,25.44979727091938
24.4,28.967778629387233
24.45,35.29660449956769
24.5,41.45648036338224
24.55,47.56397196228828
24.6,53.36934488479232
24.65,57.563678602921236
24.7,59.952863088509886
24.75,61.1215426918142
24.8,62.334363961642595
24.85,62.84116286250714
24.9,63.24580749630306
24.95,63.03388097409179
25.0,61.553519067785466
25.05,59.13077449334051
25.1,56.23402038292179
25.15,54.05076355247479
25.2,53.4534644707919
25.25,53.68690627900053
25.3,54.50365720115083
25.35,55.194276811226636
25.4,55.766611454470336
25.45,57.30246489096033
25.5,60.02024725438367
25.55,64.24480442620373
25.6,69.96943097139929
25.65,75.02701170496368
25.7,78.24132513681418
25.75,78.47368029918826
25.8,78.16051999652514
25.85,75.00978178295988
25.9,72.77555160682036
25.95,71.22639115413105
26.0,67.53450055952581
26.05,64.28492249269804
26.1,64.26119131706025
26.15,65.76641758009058
26.2,68.0956457981967
26.25,71.85932092570818
26.3,76.62570330896295
26.35,81.28135756032144
26.4,86.25720798739353
26.45,89.68572457038984
26.5,90.65790138051246
26.55,84.52028892372353
26.6,76.61330313028276
26.65,72.06758926300424
26.7,71.14774643248712
26.75,70.97598467388514
26.8,67.54950424469938
26.85,65.93512558340863
26.9,66.32842992303918
26.95,66.46211427207147
27.0,66.84192883323783
27.05,68.6002760200119
27.1,70.87461904013813
27.15,72.89955608306391
27.2,76.50874107293389
27.25,81.25294061097225
27.3,85.56494653122589
27.35,87.84969314744644
27.4,89.75438005583882
27.45,90.34283689178619
27.5,87.6518793255597
27.55,81.64650691362243
27.6,76.59082327260629
27.65,74.06502373869046
27.7,73.76268805789617
27.75,72.98843077142338
27.8,72.10903931725373
27.85,69.43155210426441
27.9,68.25689420149746
27.95,68.23480044860557
28.0,70.07806619057978
28.05,74.4067134897125
28.1,80.80306307070154
28.15,88.31861975796282
28.2,94.0317809842188
28.25,96.54309720339124
28.3,101.68440092186532
28.35,107.34539805938356
28.4,107.55450448652665
28.45,104.71613129848357
28.5,101.48308133404198
28.55,98.16651092089155
28.6,93.20790455792654
28.65,88.82378877729454
28.7,89.04213841243167
28.75,93.51567143798896
28.8,98.4396988436496
28.85,97.90902897173726
28.9,95.4206241245345
28.95,94.5604112661065
29.0,96.66678618790333
29.05,97.55786880934842
29.1,96.50486542584633
29.15,94.49713729802134
29.2,94.53562553067114
29.25,95.42630644166957
29.3,94.94802336073634
29.35,93.73071241986116
29.4,93.08373409149564
29.45,92.73219074643282
29.5,91.79219721217939
29.55,91.04158184857783
29.6,90.37872313676836
29.65,90.42744384637875
29.7,90.96676523661179
29.75,91.34831973123057
29.8,91.40492801877559
29.85,91.44519509420012
29.9,91.36922646631845
29.95,91.4195585027036
30.0,91.43893496400949
30.05,91.21027651020005
30.1,91.26144596587453
30.15,91.30764270070709
30.2,91.39290907140573
30.25,91.43082751014894
30.3,91.36963058020743
30.35,91.60878769951078
30.4,91.56548607669583
30.45,91.50369687022123
30.5,91.54169941230492
30.55,91.56784622242911
30.6,91.68184809459483
30.65,91.75056159653157
30.7,92.08273264904429
30.75,92.20602904108911
30.8,92.29596315247872
30.85,92.32417234476479
30.9,92.23035730029457
30.95,91.93841269132874
31.0,91.52823731559434
31.05,91.61305239476644
31.1,92.36008533449058
31.15,93.57337539555348
31.2,94.59846271520354
31.25,95.90575350063061
31.3,98.17756121226354
31.35,102.1548397186829
31.4,106.51544419550622
31.45,109.10641606210311
31.5,110.202910738062
31.55,109.83252725934024
31.6,107.69425703209092
31.65,106.26834733654056
31.7,104.23729530716838
31.75,101.49746729346691
31.8,97.90067642338512
31.85,94.84678605534434
31.9,92.21992813689637
31.95,90.21005169021068
32.0,88.48907493312865
32.05,87.44221678287636
32.1,87.86446236105027
32.15,87.87898733276333
32.2,87.3904275464946
32.25,86.64439877029767
32.3,86.05546969743646
32.35,86.5260989474198
32.4,87.23362815748493
32.45,87.9070678182505
32.5,88.79588436056225
32.55,90.89856175517693
32.6,93.48855012086746
32.65,95.3824360411777
32.7,97.05403323082889
32.75,98.53980083869769
32.8,98.58669355581095
32.85,97.16300657177547
32.9,93.70967609986972
32.95,91.79778093907333
33.0,92.27835770369443
33.05,92.77988015322451
33.1,89.84424238769178
33.15,85.95746353250888
33.2,80.88592134833246
33.25,77.39052457083983
33.3,76.27008878997403
33.35,76.96057841335374
33.4,78.44195235321084
33.45,79.640944055743
33.5,80.15896236207213
33.55,80.27369248227352
33.6,80.9817001242226
33.65,81.64160817098164
33.7,81.76227400707081
33.75,81.67466701193044
33.8,82.53007782471452
33.85,86.15089384013288
33.9,93.24670672032978
33.95,99.94353578358441
34.0,103.3838957430813
34.05,103.54936176862724
34.1,102.71564522394947
34.15,102.78980140940027
34.2,104.04882821834978
34.25,102.67322972025732
34.3,99.94138350334201
34.35,98.47219547216532
34.4,96.36215955135502
34.45,94.02020586101504
34.5,91.92975402552474
34.55,89.71716388119843
34.6,85.76623610482865
34.65,78.58713731556709
34.7,71.81562426251756
34.75,65.05691788369074
34.8,54.72999372246228
34.85,41.59094929834266
34.9,29.47130759931461
34.95,21.503336519624227
35.0,19.75390309191974
35.05,22.544998696200942
35.1,27.012594740174563
35.15,27.853741104684143
35.2,24.34221100460878
35.25,17.45512948300155
35.3,11.759617761684666
35.35,13.148569233475307
35.4,8.958609223938726
35.45,6.311367347470677
35.5,0.981404189191354
35.55,-5.803303380247357
35.6,-9.636747112931296
35.65,-7.820888926225853
35.7,-2.140933623458892
35.75,1.7003219439019341
35.8,-2.427895595736067
35.85,-9.135356261685759
35.9,-15.41810101466012
35.95,-17.69943542138445
36.0,-14.8786397136201
36.05,-8.69602630293485
36.1,2.1468140923911427
36.15,11.614810672201374
36.2,13.387647172684328
36.25,14.207054702297453
36.3,14.292352655731113
36.35,11.68669589201547
36.4,16.907100612494116
36.45,19.772465012421005
36.5,10.940580240081719
36.55,2.1075481388015787
36.6,-9.30537693153601
36.65,-6.8611135519220925
36.7,9.257330320590778
36.75,19.821447230292616
36.8,25.558278294007287
36.85,20.16825344954023
36.9,6.6643518755280216
36.95,-5.251945802316802
37.0,-11.11947475458737
37.05,-13.754789761330047
37.1,-17.72756368150018
37.15,-17.264288113916034
37.2,-16.823254177785273
37.25,-12.863641323717827
37.3,-6.859759825547345
37.35,-0.07435422640064022
37.4,7.026853320801376
37.45,11.02136926904551
37.5,15.046575693520536
37.55,15.113912541400131
37.6,14.311914668644855
37.65,12.166370446136865
37.7,10.024703668178672
37.75,9.257490723000997
37.8,9.156486726231687
37.85,10.814173241555215
37.9,13.36226358959367
37.95,16.09164297922985
38.0,19.509743238846443
38.05,23.44622284726867
38.1,29.007715938702873
38.15,34.13229495063222
38.2,39.31915620647701
38.25,42.68873269756628
38.3,44.753169084614626
38.35,44.57963507198275
38.4,41.503530986171604
38.45,37.34292586806222
38.5,32.49012118033346
38.55,27.437218787391433
38.6,23.22903216193461
38.65,18.202147825984117
38.7,10.643599909532606
38.75,7.816984965828056
38.8,5.151928818462504
38.85,3.9862998588930694
38.9,5.027063607743202
38.95,7.102069151971237
39.0,11.434773454122213
39.05,15.736265779377938
39.1,19.18963142108433
39.15,22.4422912250957
39.2,26.61965940254505
39.25,30.694195977818545
39.3,33.56556647279665
39.35,37.01194354195224
39.4,39.849161027140255
39.45,41.91549975784683
39.5,41.56692164465783
39.55,39.63672625767846
39.6,36.64927125752326
39.65,32.50965080715637
39.7,29.083964135016135
39.75,27.312164207382803
39.8,25.043622058903306
39.85,23.105383169065902
39.9,21.742416293809885
39.95,20.573524920444598
40.0,20.689538870961467
40.05,22.271715547495923
40.1,24.672787823316273
40.15,26.257144382372452
40.2,26.897315106412428
40.25,25.764363756411964
40.3,23.910177969139742
40.35,23.246412752288922
40.4,29.758671587339432
40.45,32.6152708211945
