Time [s],Flexion(+)/extension(-),Sidebend left(-)/right(+)
0.0,-6.927516431596051,-2.2828098446587006
0.05,-6.913928703942839,-2.2767557684014843
0.1,-6.872912143514062,-2.2654717591985682
0.15,-6.771220856406075,-2.2314917168294497
0.2,-6.67880120535678,-2.252621621782385
0.25,-6.7083579341342805,-2.237849407191723
0.3,-6.715500375426137,-2.220390404534753
0.35,-6.717472944915196,-2.1740566882992933
0.4,-6.6899354703093215,-2.119094454613418
0.45,-6.68903653757771,-2.1013468464756557
0.5,-6.669686397973322,-2.053862588859622
0.55,-6.536173556443838,-1.9883507141921208
0.6,-6.48153727443173,-1.9972103177221987
0.65,-6.460434569106574,-2.016668099179142
0.7,-6.4368343207970184,-2.019322765655305
0.75,-6.344471485864266,-1.9911322575110593
0.8,-6.2025480969688145,-1.9615722389399428
0.85,-6.037193358041281,-1.9452889822412358
0.9,-5.6937391710594705,-1.8674133055516398
0.95,-4.928562635144216,-1.7111356284238157
1.0,-3.7583053544361307,-1.4458854389548177
1.05,-3.327428302891921,-1.3223065212737612
1.1,-5.498637226282852,-1.6460717118797916
1.15,-10.594167032194719,-2.389549484579981
1.2,-16.95034529025691,-3.2899112552331133
1.25,-22.574477977186746,-4.336990427600841
1.3,-27.151537193205975,-5.823866660696627
1.35,-30.46269345844664,-6.935495411808056
1.4,-32.22311479400462,-7.4943627042585
1.45,-31.986303343277292,-7.705229724276039
1.5,-29.49366544123541,-7.7209029948663686
1.55,-25.33775753287335,-7.3200762435499245
1.6,-20.87748736589025,-6.607724046712744
1.65,-17.779069967732703,-6.357069539556949
1.7,-16.95905905119091,-6.377489563612778
1.75,-17.983422696259534,-6.812753312132769
1.8,-19.70811865721622,-7.534310532337622
1.85,-21.66928274082951,-7.354809468342511
1.9,-23.43122263201624,-6.8026407603726735
1.95,-25.342086209665755,-6.373750145610205
2.0,-27.657307533502006,-6.671752309550462
2.05,-28.99888783616822,-7.294130786220073
2.1,-29.70087211996127,-8.074541959813542
2.15,-29.384891647164274,-8.452647097714099
2.2,-28.171014044018218,-8.464238204345312
2.25,-26.67436077751517,-8.312020317166532
2.3,-24.683466604243186,-8.336784537074935
2.35,-22.928729359512396,-8.21390757062788
2.4,-22.42121503205156,-8.460422923111826
2.45,-24.171340589905856,-9.733485822505711
2.5,-28.529628330576955,-12.227410299446936
2.55,-34.011770256099986,-14.954493051568939
2.6,-38.83396382825454,-17.14026221973774
2.65,-43.05528375163145,-18.045234133057168
2.7,-45.99424235283093,-17.62755065866294
2.75,-46.29883558331627,-17.44347914591316
2.8,-45.274828953707505,-18.941904161986812
2.85,-44.65363263426709,-21.968310768696348
2.9,-43.21385554138644,-24.527991047459643
2.95,-41.46529893443124,-26.56780335184288
3.0,-38.89810780694325,-28.53194201452186
3.05,-35.058659979491324,-30.190129212045534
3.1,-31.132693265808125,-30.746024717896436
3.15,-28.77080360993656,-30.552258254215296
3.2,-27.75029000568142,-29.91365662210261
3.25,-27.245243339083693,-29.65541936094993
3.3,-26.784116336837204,-29.32528762916107
3.35,-25.274989402217052,-27.7389374271215
3.4,-24.942480788386977,-25.959828702374637
3.45,-24.84396934434117,-23.907305954759796
3.5,-22.677558681553883,-21.938766262438612
3.55,-19.59122633164588,-19.36587066931495
3.6,-18.51075423527182,-15.549764839826919
3.65,-20.639043085378624,-12.391546082932784
3.7,-21.413540624698054,-10.145026162243335
3.75,-19.601833091537003,-13.571632027867777
3.8,-16.091561557593458,-15.88649936657016
3.85,-10.986142888532253,-13.544648141488558
3.9,-5.425276776854196,-9.983799076207838
3.95,-9.52841986659985,-9.041550153137035
4.0,-19.092205240057996,-9.302302823547365
4.05,-22.3405702705546,-12.266953739917447
4.1,-23.999869470305388,-14.058438559817695
4.15,-25.123787700367867,-14.407827939124024
4.2,-27.577623641082155,-14.242196094733513
4.25,-31.0109184658943,-11.610065444107587
4.3,-29.88912784525487,-6.111697056956768
4.35,-17.137689324000174,-2.506889980597542
4.4,-3.1843854707269923,-2.9622626306983184
4.45,-2.7229167028515033,-4.059166744139244
4.5,-20.2483068783514,-2.707215731068101
4.55,-31.166670877889352,1.0522439087812032
4.6,-29.05189691467234,1.6736970381282974
4.65,-26.888504038913485,6.95987421305165
4.7,-25.999937918432124,9.98582294373107
4.75,-34.05576732896921,8.649189813367101
4.8,-39.03561611615219,7.457002105322295
4.85,-34.50710289996694,5.604615350587897
4.9,-23.228738612065428,3.025267856219584
4.95,-8.54602931221412,-0.9022310699416461
5.0,4.983824142260434,-2.3922396345802204
5.05,-0.5593759681284499,-1.9870579107979336
5.1,-15.322520160979135,-4.664770506715526
5.15,-24.809696049063817,-3.639773885725685
5.2,-22.424377726976754,-6.472800222434731
5.25,-15.843989043148834,-10.331981542902225
5.3,-11.558270790559305,-14.900196683705113
5.35,-13.93198170936944,-20.379633079121927
5.4,-27.47962987937294,-24.260229317406218
5.45,-30.07808518049577,-22.10805358029182
5.5,-17.70531181177652,-16.81389225811699
5.55,-0.6776422255915602,-10.378801680537201
5.6,16.87680101567682,-8.34668432514876
5.65,17.3760309739579,-8.979876889769498
5.7,-1.674704012644457,-8.383435925498144
5.75,-16.326985364397924,-7.293781591547052
5.8,-12.104567943425875,-3.641283685976343
5.85,-2.9420391926999545,2.996460277533879
5.9,6.858902874136364,7.1818041680910705
5.95,8.00170865561611,5.94151976322539
6.0,3.9631709368068972,6.959750308398855
6.05,7.327308275184008,1.7107323271210568
6.1,8.251707058673873,-3.9329495168940074
6.15,15.628947748897067,-8.753200878054155
6.2,20.773320422703012,-12.56955541167461
6.25,19.093636966480982,-8.511062694002684
6.3,11.083111022390622,-3.1464331075543077
6.35,5.720244113459483,-1.755784887717718
6.4,10.234402746805957,-5.333107411271706
6.45,15.841332980665737,-4.42684676607406
6.5,12.930909737363544,-3.9697777350865544
6.55,8.467614944607005,-2.0651043365578503
6.6,5.942485216259922,1.2389648683385677
6.65,8.41968780506887,5.543860208101071
6.7,14.189378940559193,7.069790554558421
6.75,19.873288615971887,3.141382538717157
6.8,18.70337014256076,-0.9697659411922656
6.85,1.7784125360146215,-2.8012553940474514
6.9,-14.527938730367318,-0.29371288715332095
6.95,-13.980705069175455,0.36146913371210393
7.0,-6.373627313340359,-0.5479287190652787
7.05,-3.937790156225296,-5.429616906862271
7.1,1.0398491683727773,-11.743405469002825
7.15,4.721851897219732,-17.294923520591347
7.2,-1.9659843673226123,-20.360474008214208
7.25,-17.339582146197067,-19.256472330427062
7.3,-23.02928074638493,-11.093345138138638
7.35,-16.286080067894158,-11.237706458043265
7.4,-5.369529943450967,-10.1213160492844
7.45,3.3025340310808646,-7.372775197577547
7.5,6.456525275239506,-7.985140892491575
7.55,0.13678114768984836,-13.307687364328196
7.6,-6.971676709928697,-13.670135957903252
7.65,-11.127739897283307,-13.594057532092355
7.7,-9.250173664689745,-16.252347673379774
7.75,-8.415764134134475,-18.65205349241946
7.8,-9.224067388558183,-20.409187342400227
7.85,-13.673888048303617,-22.846177321388332
7.9,-16.01806239510905,-20.276384179528485
7.95,-6.925705507812452,-19.007237494439266
8.0,5.505871335740758,-18.74366073231147
8.05,12.473252584937127,-18.527726195264762
8.1,9.056821501771614,-17.556424493905332
8.15,5.42054426550944,-15.927007457011534
8.2,5.176071815515025,-16.305353210565876
8.25,1.3528570593793527,-18.47744067903383
8.3,-7.428473998611631,-21.43289355595068
8.35,-11.769213334190434,-20.160912786629822
8.4,-6.606377670416577,-15.427354472072464
8.45,5.753776428528779,-9.595976884741285
8.5,14.8801154570703,-6.046087385142461
8.55,14.366517655559994,-5.799745654431135
8.6,9.678509512352376,-4.503353318397957
8.65,8.246849398066693,-2.049130871028886
8.7,5.21122886542032,-2.8556685247820184
8.75,-0.5679033474257744,-5.7639895761852245
8.8,-6.596510655081346,-8.054607409931686
8.85,-8.492069573908186,-7.212623720766523
8.9,-4.712049835058065,-6.637855344191606
8.95,1.4785937312026574,-6.893906100298861
9.0,3.746159058333989,-7.330144484960707
9.05,0.6693204053373374,-7.921186895741302
9.1,-4.038806557077239,-9.45772601883183
9.15,-9.510340140859915,-12.507274738254788
9.2,-14.045067989952036,-15.741471027624234
9.25,-16.29914222420247,-18.605288372946433
9.3,-14.894854298934487,-20.719270052998784
9.35,-10.401570254210956,-21.74678565580647
9.4,-6.540342723991772,-23.64685041073497
9.45,-6.784419588776319,-25.016250257113377
9.5,-10.88139947862202,-24.792305362086672
9.55,-17.16787491121576,-24.448711738703803
9.6,-23.192515972715128,-24.820147275115385
9.65,-28.678622122647848,-24.71897804351662
9.7,-33.157774004009376,-24.045766538677864
9.75,-35.044228478821076,-22.570441041590115
9.8,-30.787017860271376,-20.120507368734085
9.85,-22.014320711697383,-18.85678052702643
9.9,-14.5252930788446,-19.908908959715934
9.95,-11.478083397641392,-20.604511185182005
10.0,-14.517562975858226,-19.638122288771083
10.05,-21.84542138634377,-16.77907269018913
10.1,-25.15467195148042,-13.322950916222998
10.15,-28.691768501267806,-13.399377539616145
10.2,-32.42828252218612,-16.954983750631563
10.25,-39.02402320706019,-19.199945857131738
10.3,-45.92754558465147,-17.098350217495774
10.35,-44.68513332624229,-13.749628302459897
10.4,-38.38980105660101,-15.330379200774262
10.45,-28.00732737738302,-17.85300726814963
10.5,-18.01039898742299,-17.956022170379754
10.55,-13.718187549400186,-16.79697465725725
10.6,-14.69824502981023,-15.907581888929121
10.65,-16.977999357113845,-17.262248061992572
10.7,-22.331226410522227,-18.82546383049426
10.75,-31.11707017757483,-17.804262430481973
10.8,-41.124606954672736,-12.511766181209843
10.85,-45.724592215052375,-3.8373912620866077
10.9,-43.97540006578618,3.199404349178188
10.95,-39.66893736513801,7.942028860093839
11.0,-36.99367882799606,10.296788890563608
11.05,-35.28938633182756,9.650313444898103
11.1,-32.38628966661322,8.167315359127722
11.15,-29.328183429295002,6.57709747453591
11.2,-26.80268014603288,5.774355794103433
11.25,-24.896863577596456,6.336680664665339
11.3,-24.602403853427678,7.021343821854068
11.35,-27.888032731332224,7.526870086690456
11.4,-33.96180169790604,7.11969771189386
11.45,-38.88376223103507,5.1112809474276135
11.5,-39.95931843491118,5.615301117339136
11.55,-35.99843163728514,7.82293537521164
11.6,-28.15547223152381,8.738260522863474
11.65,-22.17454410076183,7.955236097323811
11.7,-20.440379580291335,6.490648091346152
11.75,-20.98405214454616,5.232905984076634
11.8,-25.23590412915914,3.5481349365252135
11.85,-34.31656297936738,-1.7511485147420116
11.9,-42.94316311641462,-10.555950900161593
11.95,-43.719968631395126,-19.301282586871864
12.0,-37.85982484032085,-26.012433261248997
12.05,-29.225919706348737,-29.55535440695797
12.1,-21.022319950135564,-29.488047213931626
12.15,-17.30390055373216,-27.164085449038364
12.2,-18.23639994804358,-23.101974633887192
12.25,-21.36160279247114,-18.416749876160548
12.3,-27.015079606736204,-15.172123879530178
12.35,-36.44672388345736,-12.494940724193636
12.4,-45.05428883280956,-9.956079396922163
12.45,-46.599536866725295,-7.438030808484909
12.5,-41.83358650960532,-5.404489007242853
12.55,-32.22186918819916,-4.483248395306447
12.6,-21.03998664846052,-3.522898311137926
12.65,-10.852962211035932,-3.351737872986355
12.7,-4.597144296836401,-3.4543654440393103
12.75,-4.659378691638834,-3.483671375595081
12.8,-8.521462456174959,-2.7976020305059164
12.85,-13.894495779607015,-3.4140968724278813
12.9,-18.081926222830294,-5.185028415857377
12.95,-21.221660005956682,-6.1596587256231645
13.0,-22.718247494276284,-5.055344844976737
13.05,-18.19341060471589,-0.7527019139529167
13.1,-10.89220478200922,0.45503551402784304
13.15,0.8339541507552939,-0.9947976302064107
13.2,12.644395437838849,-2.8556549119861834
13.25,18.823900379368244,-4.54571449008984
13.3,17.355365021187666,-6.674963466931979
13.35,15.161484999387332,-6.976519374685578
13.4,14.622597082908058,-6.266685158988205
13.45,12.823489429800174,-6.099833797524374
13.5,9.920488644264365,-6.281213080355088
13.55,7.3420956774689285,-6.482452707258633
13.6,7.283836208910011,-6.429497031796827
13.65,9.011577081527424,-7.504837421902306
13.7,11.048905272715462,-9.299480730822816
13.75,12.378619346050524,-10.424764824258805
13.8,11.864162027176585,-10.05764695945165
13.85,10.15518540765278,-8.358121194395377
13.9,10.592419310945337,-8.055398632360797
13.95,11.703831261086396,-8.40703172649882
14.0,11.454576695217908,-7.858511497443255
14.05,9.925903647499966,-7.3100726190185625
14.1,9.08789128164463,-7.470941534621862
14.15,9.043026891306804,-7.785560779720099
14.2,9.081217105643773,-8.003530962983328
14.25,8.173759386092556,-8.206128095683702
14.3,6.426769934553921,-8.787095021418905
14.35,5.788424787479984,-8.710741622956675
14.4,7.926255359945631,-7.3011213271072055
14.45,10.457994914256872,-6.550290827191733
14.5,11.664938033890069,-5.994793152285574
14.55,10.883742334555432,-4.8989438142618935
14.6,9.782651780522912,-4.910830678123633
14.65,7.199046379955807,-6.471553292520612
14.7,2.733269932982985,-8.956337654827335
14.75,-3.6470455696411115,-14.35863343292362
14.8,-11.970155824876128,-23.486173243123837
14.85,-18.11345718988534,-33.834957114687036
14.9,-18.87047876231576,-41.007659867567455
14.95,-16.725354152668547,-45.76825984524223
15.0,-14.304958822172514,-47.991059044335636
15.05,-15.679386051541677,-47.57593310829453
15.1,-23.703583731921313,-46.393993463978305
15.15,-33.9019344509621,-45.1769327275774
15.2,-39.13164503404769,-43.90411249710225
15.25,-38.715024835574596,-40.980676814034645
15.3,-39.80507889819281,-36.16392808902424
15.35,-43.44389796027375,-30.571265456561687
15.4,-44.25553380012061,-25.408940197628944
15.45,-43.56622588188667,-21.94727773397849
15.5,-43.64262810763296,-20.952840999304374
15.55,-43.69039608422615,-21.333563194454733
15.6,-44.161395841681355,-22.191000373450713
15.65,-47.189252190996186,-23.62603361539626
15.7,-51.4079877402421,-24.239354179847453
15.75,-51.90124603194643,-23.70352226074596
15.8,-49.3628666008405,-23.939692383985488
15.85,-47.552980330377714,-24.26047970268873
15.9,-46.88955365195527,-23.90301568359647
15.95,-45.95778220139078,-22.812556498839207
16.0,-48.58936947371973,-22.775051810034654
16.05,-51.38322756485416,-18.259695917684354
16.1,-46.42528988672575,-11.612833703232342
16.15,-38.48917336795704,-9.437324889475187
16.2,-29.90939645851379,-10.298391260371014
16.25,-28.745192044726412,-8.150215517686249
16.3,-32.41693335847136,-4.660335987417745
16.35,-29.370408867193024,-6.295614135659572
16.4,-24.29527610254155,-9.260478416358234
16.45,-17.60019453609427,-8.7085871060171
16.5,-8.073446833140986,-9.106236577646111
16.55,-7.752889730281523,-9.83422571257727
16.6,-16.885896420801856,-9.52712166382281
16.65,-19.464280933299356,-7.31987224435442
16.7,-19.533776030491193,-4.906968595316506
16.75,-23.182750265287904,-3.160274104558931
16.8,-25.7001225127267,-0.10606381100255004
16.85,-24.378128295720014,3.1671611426465893
16.9,-22.599398527732426,4.505517294170954
16.95,-21.56927383841585,4.855893415934571
17.0,-22.627389322073988,6.224200547032291
17.05,-21.81615927761684,6.1912308484869145
17.1,-17.97187933903119,1.9542676911068202
17.15,-14.048765430542288,-3.41233615048646
17.2,-13.312766878625197,-5.751565407880373
17.25,-11.568955916167182,-5.835586479634924
17.3,-9.058607067019626,-5.026469601453242
17.35,-8.992375470629286,-1.219979299507061
17.4,-12.09817953607826,-0.7753833814178044
17.45,-7.716473543295119,-1.4118416206941358
17.5,1.9073628265404199,-0.3350181452889131
17.55,5.909644730115112,-1.5358978053710168
17.6,1.7350352923846206,-7.24823837369192
17.65,-3.3789335738330633,-6.8490549774378
17.7,-6.093681358553606,-8.699466560338706
17.75,-6.844567496573998,-10.119385659318437
17.8,-8.549786605859493,-12.10790741665863
17.85,-6.90604377261904,-15.717100862995808
17.9,-0.8421103907532546,-18.918015656146213
17.95,4.054628527843597,-19.42718751031788
18.0,9.724224648938252,-16.91172580544239
18.05,14.1209347675902,-16.336474800486577
18.1,12.816478864313277,-15.323532896142408
18.15,13.031348574529236,-8.945116781287002
18.2,14.087004266970228,-3.700687769593012
18.25,13.820829249911604,-5.774574186734398
18.3,-2.622871112027672,-13.456031383950469
18.35,-1.010235651028923,-17.305301679871736
18.4,1.0355022812224324,-18.532646211782502
18.45,0.6877722075908603,-17.690414231752232
18.5,-0.22028661649368889,-17.80487997940236
18.55,6.016185240849264,-17.761962022092124
18.6,1.428065765273193,-22.244431488094037
18.65,-10.308491332122804,-29.994234205311965
18.7,-9.279809188260685,-28.77620111417474
18.75,-3.053772850056786,-22.28744634266144
18.8,-7.6171950869138945,-19.979318001902726
18.85,-15.292426091406199,-21.499067990983324
18.9,-22.02352759902185,-22.56942259062776
18.95,-26.404253798644664,-21.689588258296055
19.0,-28.679815262805434,-21.134251626356086
19.05,-26.320084233019504,-22.091031922648902
19.1,-24.73724262685999,-26.191505239476744
19.15,-21.760866112872034,-28.22411513659938
19.2,-14.40213272817393,-28.01165084386527
19.25,-5.834065026728791,-29.586131615014665
19.3,1.087016010562085,-23.05939436409704
19.35,3.949813432316007,-16.419993597992622
19.4,3.6085886042320143,-12.051976964805906
19.45,1.884783306759112,-7.984081366542343
19.5,5.045021559319035,-1.1463469301683047
19.55,8.104034155150496,8.013847494860503
19.6,7.415517551497528,11.810979714176423
19.65,5.746985621563956,9.758330968817663
19.7,4.559598274787857,9.160794736034259
19.75,5.128005137093148,10.88258642321346
19.8,4.667589966842272,10.434958007649184
19.85,4.402476485716255,9.03775196439654
19.9,4.114083232161497,8.818556635949143
19.95,2.696151125706908,8.799707079912343
20.0,1.685610499402193,6.793099082025707
20.05,1.2929833005997937,3.4736101213023227
20.1,3.8478633582281274,-0.40543468998762616
20.15,7.9926707951825415,-5.3475147058416646
20.2,6.991095499223385,-12.124801627073971
20.25,-4.476302985407267,-16.081950976064025
20.3,-4.606693065092413,-13.311100803230607
20.35,1.0551614597257108,-11.059419046815808
20.4,5.927694451788052,-12.140441430334377
20.45,7.572397249781098,-12.07415359235714
20.5,7.191703636505721,-10.972941147374794
20.55,2.728377282094716,-12.295238383628986
20.6,-1.1107422422268418,-13.653699312511485
20.65,-0.9914461787434329,-11.339886854167611
20.7,2.3057197931805797,-7.173745669891613
20.75,6.998284458865559,-4.024676592672349
20.8,10.400867273290565,-2.496272584350512
20.85,9.715589414251845,-1.939876949336158
20.9,2.5843447770116086,-3.1451916191004345
20.95,0.8816752036803914,0.383817769391819
21.0,5.932773004383159,1.532363613872411
21.05,11.120430999458218,1.9405498682945814
21.1,9.846415207189885,4.2529427361045435
21.15,3.2938335814162425,6.447787516248489
21.2,3.973334973248445,7.1141141602334885
21.25,9.261079638434829,4.948923621420832
21.3,14.799960364520446,4.024432393365619
21.35,12.82979336201498,3.413862929170691
21.4,1.6125693030218877,-2.0008590111859927
21.45,-3.0290863490131055,-2.9312567127434126
21.5,1.4026002424121882,-8.603109763287494
21.55,7.049840706756779,-10.93710232659198
21.6,8.383868313723955,-7.898587647765826
21.65,-1.2200038520457448,-1.6009482303051963
21.7,-5.55617906193117,-1.9866850439491246
21.75,-4.336032881581215,-6.189673817823937
21.8,-4.062778917977618,-10.544806847280427
21.85,-3.206774732432565,-13.70607220895815
21.9,-3.4623770463403156,-15.38469355651459
21.95,-8.075204471796608,-15.93296937803761
22.0,-10.065257738447425,-16.82966667030504
22.05,-4.444502759152624,-22.22028350770149
22.1,2.388143804412274,-20.80247349014265
22.15,4.82472047496551,-17.68740939111715
22.2,-13.758466606483534,-19.971426402499997
22.25,-21.782128080169482,-22.171005766869214
22.3,-14.655961967156417,-19.075125936071462
22.35,-4.836872954614465,-13.161228708279708
