Time [s],Flexion(-)/extension(+),Abduction(+)/adduction(-),Internal(-)/external(+) rotation
0.0,0.7374737172753845,-0.5250161590607936,-10.887630807544324
0.05,0.7272135185315647,-0.5767881362923778,-10.886074078743
0.1,0.7872577334371019,-0.5986179076090555,-10.88863687606987
0.15,0.8300311026658383,-0.6125618700057288,-10.902035259186496
0.2,0.8513690231943141,-0.6448077474092462,-10.916029144766377
0.25,0.7894402873237621,-0.6585740933245111,-10.922235273474184
0.3,0.7760494953339151,-0.627283816551972,-10.919892824782732
0.35,0.742638787413994,-0.5782111258573865,-10.92019369210886
0.4,0.7229616886237696,-0.5749085072925806,-10.938991024258682
0.45,0.7183323101728398,-0.5562397732716811,-10.955686287580857
0.5,0.7227976376094852,-0.5300732829953545,-10.964743378902375
0.55,0.7042179381326583,-0.5204627173668503,-10.981593129988246
0.6,0.6873735817149169,-0.538523746556332,-11.011254951740613
0.65,0.6595024383270275,-0.5726936403757279,-11.04257348368518
0.7,0.6422059174591669,-0.5683056234858448,-11.065197108735846
0.75,0.6070044238821869,-0.5544195475097308,-11.093225790658865
0.8,0.5321686364161778,-0.5354671702751947,-11.141234163515872
0.85,0.42181516123260177,-0.5171038867482057,-11.154791378328392
0.9,0.3281983233580306,-0.5083249419746833,-11.146245428753101
0.95,0.25745984776648095,-0.4660197792386752,-11.141731337376411
1.0,0.18099699171598002,-0.4460490391531433,-11.124490472600959
1.05,-0.03613411285050989,-0.4132965936698192,-11.120266020296581
1.1,-0.5063265446031187,-0.3238985985964457,-11.124978502140502
1.15,-0.7773182853722707,-0.2904182674849219,-11.170606218730882
1.2,-1.0952383429326666,-0.25000973821100464,-11.178216943431288
1.25,-1.4484183068726266,-0.16028191894741853,-11.162354392082264
1.3,-1.908507628719822,-0.09608319431397716,-11.157753818538481
1.35,-2.420805165889277,-0.10808085643704524,-11.244529263115323
1.4,-2.9052550766889746,-0.1758851495712829,-11.410569240019537
1.45,-3.566214485859456,-0.3268104956992717,-11.527026618973338
1.5,-4.609355505410139,-0.5887081183166737,-11.683066630970986
1.55,-5.954669856300749,-0.9511334982567586,-11.85256637244176
1.6,-7.651602675979918,-1.348589365925242,-12.089773120439041
1.65,-9.640734460862431,-1.6036256575209187,-12.355576513249092
1.7,-11.474337326953236,-1.7571194941077566,-12.656305051954263
1.75,-12.923778702646631,-1.9204641440754027,-12.726290191361654
1.8,-14.176544668071195,-2.3531302497859894,-12.299782677954356
1.85,-15.071286544869347,-2.3956237019235287,-12.253896113365222
1.9,-15.749113897511451,-1.8773502040355317,-12.503796376655638
1.95,-16.183351217479768,-1.1708825782664676,-12.604178294394469
2.0,-16.26556318254584,-0.20430277499797536,-12.766952311691568
2.05,-16.18258696403898,0.6587901816011349,-13.257314402659846
2.1,-15.76269822382535,1.3071734920192042,-13.90919436849507
2.15,-15.155588724591437,1.4743890312226575,-14.140609614061072
2.2,-14.929849465521565,1.5323253463620645,-13.919380628496027
2.25,-15.326501315672877,1.6915539333663254,-13.93200377276745
2.3,-16.272291781317424,1.931950672457346,-14.661668733717773
2.35,-17.672326213569768,2.457403365349048,-16.394682320420568
2.4,-19.729671241316048,3.1271581746783563,-18.29558518148849
2.45,-21.954936037061586,3.685038080207503,-20.191792404467066
2.5,-22.749420430523596,3.283072290409432,-21.33649132202812
2.55,-22.13130213338186,2.1768670410174,-20.2854142798967
2.6,-20.709187090430525,1.3890930818581124,-18.01553054172178
2.65,-20.043343600165976,1.2576493805318203,-16.02990217311966
2.7,-21.304885112889245,0.5840231657928875,-15.366581940950802
2.75,-22.769919844453334,0.5299608679620319,-15.718498379281217
2.8,-22.846939707793794,1.8027280143043647,-16.663726383238956
2.85,-21.49242657348083,3.1517411777796482,-17.103020352215314
2.9,-19.133140508595957,4.287687345982799,-16.64707954059512
2.95,-16.489578936188085,4.83338247593948,-15.587139733974713
3.0,-13.931932479104221,5.3900865073995705,-14.894407112954495
3.05,-11.041285337208842,5.656013549047336,-14.125635877130843
3.1,-8.19403658797288,6.210416792709118,-15.185791229131839
3.15,-6.6894474155446595,6.260264262752387,-15.332435545673105
3.2,-7.060601106647818,5.0784406404567735,-14.480261655860117
3.25,-8.537834005405692,3.3061893563281286,-14.11298443350109
3.3,-9.574313271079692,1.9569010244321705,-14.877079119942033
3.35,-9.91790764776585,0.27527436407165884,-14.613943532098647
3.4,-10.907736679722598,-1.5449903612809506,-13.88974642750002
3.45,-10.092543007769622,-5.039756051499717,-14.277860878540467
3.5,-9.854071915936172,-5.977906172480118,-15.538786584226264
3.55,-9.056569790631004,-5.928446093464618,-14.569332988021486
3.6,-9.385245494101842,-6.156604279898534,-13.876039636620545
3.65,-7.344076167846977,-6.0701432974569185,-13.321281232290875
3.7,-4.416263472397342,-0.9434438707871374,-14.559489871579235
3.75,-2.5370959014106704,1.4038533355481249,-16.687800678041874
3.8,-2.9546510775124344,0.09143605784237176,-14.977006001140982
3.85,-3.489662328476138,-0.5238134321255601,-14.941465003636344
3.9,-0.8795785824140928,0.5818291456646462,-14.586808291929586
3.95,0.44055928215953727,2.628802440062057,-16.15512191603929
4.0,1.4218921780095108,2.440055254531342,-15.073672041014516
4.05,2.2599277899562926,1.921710611918465,-16.136739589558065
4.1,1.403017953766845,1.1947389200272465,-14.239963311203512
4.15,-4.950430800623461,0.5089323384996695,-14.1868020829328
4.2,-12.70246220211162,3.1286270565151715,-18.799705999187292
4.25,-18.487472077629278,5.845741048809531,-20.74687843740707
4.3,-21.28997016859646,4.340379196979431,-17.721406677817686
4.35,-21.318549424894236,2.807671182379096,-16.03025780254849
4.4,-23.186540743430246,2.9169084424468776,-18.40130773688354
4.45,-21.900775485748657,0.07480644481304452,-20.5066237715539
4.5,-18.13279067280222,-4.135359037275868,-22.087966181602262
4.55,-18.01316739676392,-4.316470616187663,-20.729187779516163
4.6,-21.28186381951907,-0.9176942931401548,-22.553265826445028
4.65,-20.153034188128274,0.5780520423998887,-21.143939421105454
4.7,-22.677520807428692,1.6062591045838148,-20.886971875775796
4.75,-21.91034880908545,-0.278323008495077,-18.302294894446174
4.8,-17.385736674026337,1.844798816583983,-13.080371257858912
4.85,-9.86753850867069,2.9798004337197606,-9.194952538286412
4.9,-7.913689629563779,0.06505444528863949,-8.836667555453323
4.95,-5.710931945878428,-1.8398944684871708,-10.102796846868598
5.0,-1.0120571192075514,-1.6569076079232328,-15.343744457362302
5.05,2.8959423017202193,-2.8451611053095807,-15.540488708978616
5.1,5.06253262000086,-3.1996811412861317,-10.694801362326208
5.15,4.378590676245147,-2.789071963785663,-9.69402217316794
5.2,4.447772992572125,-1.5701517309353221,-10.093177412293256
5.25,4.298442694577386,-1.1900256963093345,-8.842710509498769
5.3,-0.4171479083111178,-0.33738035630555946,-9.7661578107431
5.35,-7.352315279836263,2.060576481324021,-13.225680122913063
5.4,-14.76899014887911,5.97574174885767,-18.375600110737864
5.45,-17.928932592092337,4.81656190573718,-17.2533987857533
5.5,-20.802240630008694,4.118304965107316,-16.078023332646318
5.55,-21.588280351159423,3.19840604672022,-21.752910130283283
5.6,-20.510400787863748,3.295521355048613,-27.26972576833887
5.65,-16.71256535767846,1.8478919365509252,-27.119678889262264
5.7,-13.785955871604774,-1.6947223488160146,-25.33288456300435
5.75,-16.725936131301104,0.11551864611013009,-24.76870310239837
5.8,-20.196302036920628,3.9574546839296803,-25.524451161868914
5.85,-20.869753526643095,4.159723849804739,-25.220214046272222
5.9,-24.48486017824191,3.679855248987051,-27.991301496847736
5.95,-22.516800834741332,0.7702461112129129,-24.255186515144377
6.0,-20.451911420010177,3.557863191289555,-18.59264976135558
6.05,-16.559639348726755,8.410692521782718,-17.406602185788127
6.1,-17.012610087776622,8.29427250108675,-18.367814943196155
6.15,-22.087804771263816,8.285733387756308,-21.17654360873084
6.2,-23.758337077946848,9.397591441993237,-19.99069991910877
6.25,-20.229888810765306,11.085167752296167,-12.535166953773937
6.3,-22.14863671841328,11.532273845159402,-9.82363948423966
6.35,-22.346918716905822,8.397862494786,-13.806530205597001
6.4,-26.51921504138023,12.49848285545216,-19.33657269424196
6.45,-30.685207523479153,13.055561166084887,-19.82076133287534
6.5,-33.141554233553904,10.801178249813633,-14.920408344677508
6.55,-33.769851902928146,9.99489709351039,-15.367780536682194
6.6,-32.81831265425061,8.24671376817052,-17.0182236053877
6.65,-31.289005272694826,5.913923554233997,-18.044335754070477
6.7,-28.17920054515575,4.881688809445437,-18.198474839357292
6.75,-25.308365205148068,3.06335957452427,-17.633593346340795
6.8,-22.611827238216623,2.7857604157242526,-15.072360661854272
6.85,-22.367687386317197,3.9267484660189664,-15.263795832641653
6.9,-24.95794736898658,2.563742106625258,-13.099494919149937
6.95,-26.716921240217356,4.832714823497111,-12.029275973731963
7.0,-21.53376773667804,2.559619818911022,-7.2873578857072125
7.05,-20.0809536329989,2.147257764771642,-12.477071433747406
7.1,-20.354072704409138,1.9197611343113947,-12.816804247990362
7.15,-18.594416185514902,-1.497334506572104,-12.43677095935615
7.2,-19.220203294446247,-0.02010675781295871,-15.049991109019532
7.25,-16.074805543572293,2.726264812306087,-13.368948251952355
7.3,-12.936007255145144,-0.5297191755402811,-7.8228460371879045
7.35,-15.755226469204583,-0.2587384087322942,-7.707181236629281
7.4,-15.426607375067764,-0.391149951808107,-9.24722884251609
7.45,-16.248863760645776,0.6798515219335539,-11.211348905948395
7.5,-17.479020531027736,1.109956721379257,-11.222534916009758
7.55,-16.09235100070143,0.5752137627409771,-8.49563455485176
7.6,-17.989916861737157,0.264941270292717,-8.400543034609743
7.65,-18.187566290236003,-0.2571460752414295,-10.24452318806515
7.7,-16.714709816021887,-0.8114634944064493,-10.215718396704068
7.75,-15.478472892837548,-0.9448534668108519,-9.981939503766364
7.8,-13.790992282442652,-0.03180324092113065,-9.749973542907778
7.85,-11.080272179426936,0.9481787559828089,-7.43918930023439
7.9,-9.759083624888174,-0.8733874177429555,-6.595801619890383
7.95,-11.897042717336449,-2.0845867938779508,-7.868413772325498
8.0,-11.70019716034602,-0.5325200296130508,-8.696518697457396
8.05,-10.099770597232975,-0.7635578194871945,-8.80668445503753
8.1,-10.37034047404561,-1.856463614798232,-7.864945889937823
8.15,-9.721117541424986,-2.0400473378203503,-7.888573604414558
8.2,-8.658493743453525,-1.6812788932427667,-8.153718443500605
8.25,-8.29328066199264,-1.4634502289386047,-7.7556610548518705
8.3,-8.954079347031621,-1.0808916868141247,-8.548406761676294
8.35,-9.496873202900685,-1.476976979515502,-8.870978385597695
8.4,-8.841269368696851,-1.7774632339529293,-8.836951875028031
8.45,-8.918506003175716,-1.8782817012845723,-9.35609589936258
8.5,-9.655060608900584,-2.5365080218423413,-9.815031813326057
8.55,-10.667854263269707,-1.6917319915975935,-12.165313724007282
8.6,-9.840536501251222,-1.868749398382251,-11.621429528028127
8.65,-9.693575621293443,-2.54683590855243,-10.835128841537806
8.7,-9.854678333008177,-2.353196115243791,-11.141687685621623
8.75,-9.072743738012345,-1.8937689424351005,-11.27635668688475
8.8,-9.00808697234004,-1.8524094227882706,-11.11652471947839
8.85,-9.029533518765595,-2.658127289695769,-9.710248113127511
8.9,-9.200874909837431,-2.5252345070834,-10.30959828207092
8.95,-9.290007017045543,-2.3330844455191224,-10.597256003175962
9.0,-9.51930921923301,-2.458006801513348,-10.728669312105973
9.05,-10.110347935700517,-2.1515154687616684,-10.515466536764093
9.1,-10.22634955534634,-1.946844844463238,-9.630100680801396
9.15,-9.605308536894148,-1.6940599787631552,-8.745537764528583
9.2,-8.092692410048208,-1.8051653978419853,-7.425015993894409
9.25,-6.7555630575567065,-1.6232775531725263,-7.341918261978801
9.3,-6.575857606888152,-1.407276960374036,-7.627386785193899
9.35,-6.404706696184121,-1.208610561113855,-7.418370793116876
9.4,-5.909484182511576,-1.5843936619840853,-6.560542551844213
9.45,-6.222621187402877,-1.580958679375607,-6.380402268418502
9.5,-7.059136100212462,-1.9016297159947182,-6.260522092465706
9.55,-8.718864439309801,-1.4664695601699067,-7.087304529294351
9.6,-9.936291180113331,-0.08540285149313318,-8.661670020867742
9.65,-10.80682596343325,1.3512550340037037,-9.24459078641187
9.7,-11.777070479400187,2.4197456691273884,-8.030581067710246
9.75,-11.062771330928735,2.956441271904789,-6.735179802830542
9.8,-8.833006699146477,2.7678071206200476,-5.936490372564334
9.85,-6.245703543032188,2.9013113962237553,-6.911059653853681
9.9,-5.580076489767664,4.090072750056758,-7.946123918947578
9.95,-5.0069842053792275,3.9437135677976385,-7.332898975513567
10.0,-4.337378311373534,2.967514915862565,-7.1700598706494185
10.05,-4.834180446164276,2.0900439619426927,-7.829603299396311
10.1,-6.388716303471457,1.3518270935023406,-7.039509364816986
10.15,-6.8219860679636675,-0.5321965132440558,-6.163831025147938
10.2,-5.96160079861935,-0.9974770449254956,-6.99135932677938
10.25,-5.270720809589061,-1.2467645513534855,-8.629939046874407
10.3,-4.663086216902873,-1.2892335584552561,-9.569299124454187
10.35,-3.2266707037158717,-1.2183990975404804,-9.804106425277574
10.4,-2.0282908922140863,-1.6916028918871864,-9.079306677687386
10.45,-1.5660512582719583,-1.8275562290308665,-8.510879592714106
10.5,-0.7247660752396252,-1.559854020318336,-8.568358736236226
10.55,0.35079626913578227,-1.3022170751758222,-8.98106237596583
10.6,0.5939333603023501,-1.0513721282738464,-9.652485347935363
10.65,0.0014855268900087998,-0.471390711694451,-10.63399889067011
10.7,-1.5564048223266018,0.3287230964269107,-11.61727585978543
10.75,-4.04890986912629,1.375172938889702,-12.45783116905111
10.8,-6.09034898488977,2.459105955757437,-12.620463918146205
10.85,-7.239333226764617,2.85409762224433,-11.958526668346279
10.9,-8.558460267656654,3.058341834581841,-12.23233085001343
10.95,-9.35355510431238,3.1673478245246867,-12.054734337239536
11.0,-9.523238372631285,2.7549712184430177,-11.17315526701132
11.05,-10.073607586837358,2.1518823569000323,-11.740201141790356
11.1,-11.540321398738968,2.630491482633058,-13.82075014107912
11.15,-12.045266717993556,3.890645881572618,-15.909375974587158
11.2,-12.030657594464023,5.022586386878316,-16.19726952881112
11.25,-11.918695636052249,5.299985511763612,-15.036994137617228
11.3,-11.865045327936727,5.234359794676832,-13.803939608708507
11.35,-12.747472863270492,5.68945917815462,-14.363196866591878
11.4,-14.780048288967294,7.1267109108853255,-15.36294289662184
11.45,-16.77684079693118,9.109598945769092,-14.299385782170207
11.5,-16.946114970750212,9.699668201620353,-12.17507885068293
11.55,-15.37842427691875,8.721785734674935,-10.86146147592032
11.6,-12.348926216851229,6.91734148819833,-10.748281384194874
11.65,-8.534517193439207,4.881494504786232,-11.024760856042946
11.7,-8.237185753830842,3.556286826443577,-9.630536411369908
11.75,-8.246252881101755,3.8601754474522214,-10.442739715657947
11.8,-9.77679475547922,5.076171607355116,-10.485082361580984
11.85,-12.029552628837648,5.450962328182388,-8.906603380562407
11.9,-14.29811601655535,6.172001846889987,-9.249775013701447
11.95,-15.670488508703572,6.989867864276976,-9.669033405772577
12.0,-16.198057512025922,7.46190837524877,-10.06323679852417
12.05,-14.96463486191295,6.449607160019098,-10.432046229804238
12.1,-11.492480666955041,3.5835457435155447,-9.733896736906463
12.15,-7.201383256233029,1.7294469529367709,-10.546896649858676
12.2,-6.881473678194792,2.1955451953222207,-12.833903175913921
12.25,-8.764515083115148,3.004054728175263,-11.927351330794542
12.3,-11.259378778123835,2.3497373821634313,-9.066380430770796
12.35,-13.870553168082493,2.2542291021464287,-8.305541004317238
12.4,-15.928092201258842,4.572671824923448,-8.573295459513071
12.45,-14.666641937703835,5.884938208035282,-7.627157374637055
12.5,-12.81728957809467,5.317969259715088,-8.140213984167305
12.55,-11.545573869546553,4.962606007085015,-8.812046672297308
12.6,-10.602587441230224,4.475491729954261,-8.97086188457498
12.65,-10.653552053550154,4.894546199956612,-8.627558907350366
12.7,-13.043566496463765,5.220548673223318,-8.81707864160204
12.75,-16.184145154155836,5.532187139688752,-11.608791699773736
12.8,-20.522968704080498,6.172778269980352,-16.46943340145
12.85,-24.44673471708819,6.177341146898569,-19.688425692697546
12.9,-27.97755701124517,5.87448555583095,-20.814318895042597
12.95,-30.57188399197572,4.929876625114971,-16.170324645019136
13.0,-32.67382918182694,6.250819344781349,-11.821615650675666
13.05,-31.767497716351645,8.436393944822875,-14.472256602758847
13.1,-26.58106854909286,7.26041218935711,-17.82199290382109
13.15,-18.390633144099095,4.745157552440589,-16.821002591626524
13.2,-13.876838099861567,2.07971562705046,-15.263290867647562
13.25,-10.498700890192177,-0.6013946436036198,-13.342361300392136
13.3,-9.253487106445787,-0.45545915863686587,-12.449900019812793
13.35,-10.179890644774577,0.19586163271001353,-10.331518182961783
13.4,-11.105050875151141,1.1489292693085063,-9.784973219709297
13.45,-12.109558709696508,2.8589461353730483,-10.812506172279615
13.5,-12.965537506809039,3.011651167821942,-9.991194888520026
13.55,-13.098301968423057,2.696084355647087,-9.860223201834685
13.6,-13.305848150972446,2.656794822262577,-11.2081780007431
13.65,-12.926186108901568,3.037235310627206,-12.979757311179762
13.7,-11.654350690436782,2.279331362780815,-13.92984069711524
13.75,-11.487486693365407,1.7394533508973655,-14.21358063582063
13.8,-11.784492637631361,1.8599620787798645,-14.743179121027573
13.85,-11.995736809717975,1.4395326928609014,-15.513672832090725
13.9,-11.961099846391631,1.0583963661528848,-16.71507715382816
13.95,-12.186951812678146,0.6568328777024137,-17.712737288829064
14.0,-12.75201005558446,0.36001839377716455,-18.46476466396194
14.05,-12.944251418386402,0.6417726682759434,-19.31087632696633
14.1,-12.925419096845088,1.076967643130255,-19.766452525597952
14.15,-13.530106001817659,1.2142196654930013,-20.222045802450424
14.2,-14.704316351429114,1.619352446691608,-21.49392628968157
14.25,-16.993211920367255,2.2308274522046374,-23.961713752158683
14.3,-19.644592609429594,2.7499369744104056,-26.208054523008144
14.35,-21.149253500800608,0.5611193865376535,-25.465039481934124
14.4,-21.608560923839836,-0.519883068116648,-24.652720096494345
14.45,-19.963983764426878,-0.7702853668495288,-24.854941236295737
14.5,-18.065627887167068,-1.0143910633751003,-24.135296260088353
14.55,-18.281746918072454,-2.288617273949432,-21.906308426869057
14.6,-20.102360325535187,-2.4540342919825253,-21.9047658220982
14.65,-21.532858254009778,-0.5830482684131723,-24.304176736057475
14.7,-21.369028356385357,1.2565801723598764,-25.01566085171902
14.75,-20.720148462233364,2.5266895977643022,-24.86335061863265
14.8,-19.443102930675956,2.6897780899172394,-24.643404499167655
14.85,-17.575793850119112,0.8049381830241138,-23.194322481588603
14.9,-17.31049423401856,0.43999073653876086,-22.72887356760232
14.95,-17.854526674448188,0.2575563857822189,-23.071670730483678
15.0,-18.016843026655323,0.49553154050623477,-22.63741007523212
15.05,-17.136976459575774,0.5668438857801144,-21.61623410947786
15.1,-18.052284276751575,0.18308009746056883,-22.059529549889696
15.15,-18.71397439429402,-0.32002411366557637,-21.36157320980196
15.2,-18.4391702055891,-0.03959227054086583,-21.87912147298791
15.25,-17.74787841726607,0.6803637662257072,-22.54252144484537
15.3,-17.152742834198865,0.35391962398162186,-21.92375775433097
15.35,-16.562358080050277,-0.4347542740783724,-20.804903285901823
15.4,-16.55586335278323,-0.16768189662300023,-21.24384594761868
15.45,-16.58396104291582,-0.003864011632032334,-21.956374348525156
15.5,-16.661548946485134,-0.09483646241474283,-21.94769782390583
