Time [s],Flexion(-)/extension(+),Radial(+)/ulnar(-) deviation
0.0,-153.16916974066928,150.0378099504087
0.025,-153.18852434550718,150.06140829146577
0.05,-153.21715303474033,150.09491664167868
0.075,-153.22959719187983,150.11643287953692
0.1,-153.2204256224176,150.11471534126508
0.125,-153.21108561844832,150.09880848334245
0.15,-153.21810835412623,150.0884664287335
0.175,-153.2286407872137,150.0894227800518
0.2,-153.21806635859537,150.08398437902073
0.225,-153.1949358707895,150.06647421133027
0.25,-153.18501204582347,150.0531692666577
0.275,-153.185373842278,150.04826090887124
0.3,-153.18858269860317,150.05018101742277
0.325,-153.1995350922112,150.06022604241303
0.35,-153.22590084156292,150.0847994857351
0.375,-153.26170308377687,150.1209817712939
0.4,-153.29201811329511,150.15377502522364
0.425,-153.31613482649695,150.1785374979264
0.45,-153.34066408704228,150.19995340417807
0.475,-153.36878089369432,150.22423857111278
0.5,-153.40557993538982,150.26127238075017
0.525,-153.44928182194167,150.30933892128076
0.55,-153.4911713850567,150.35418427865994
0.575,-153.52887532035976,150.3906599125587
0.6,-153.5606474546395,150.41884119075974
0.625,-153.58384844409065,150.4405755441674
0.65,-153.60202602835292,150.46272076395894
0.675,-153.61661984813347,150.48701258891327
0.7,-153.62163969244395,150.50714416385696
0.725,-153.61082564145758,150.50901675811377
0.75,-153.60183434473552,150.49711861948762
0.775,-153.63370510725503,150.51256619970994
0.8,-153.67632410286254,150.54726380861
0.825,-153.6821162232416,150.56728366403365
0.85,-153.64350799886478,150.54670347163355
0.875,-153.60100056607604,150.50482897266758
0.9,-153.57705765896483,150.47197750435478
0.925,-153.55629378504796,150.44811038919667
0.95,-153.52975663111516,150.42412684493195
0.975,-153.49899126213828,150.397043635708
1.0,-153.45927964585695,150.36374176249166
1.025,-153.4066067390411,150.3194526738232
1.05,-153.3487468166531,150.2644996134593
1.075,-153.3022742811867,150.21237782038455
1.1,-153.2701035906691,150.17268791633356
1.125,-153.2419357887013,150.14239434206334
1.15,-153.21127494625514,150.11318734734058
1.175,-153.1791957751242,150.07957493651534
1.2,-153.1476279977203,150.04155600323404
1.225,-153.12107895495637,150.00650978968187
1.25,-153.11152133175298,149.98944240702752
1.275,-153.1282525211163,149.99956115478096
1.3,-153.16580796057008,150.0321030546026
1.325,-153.20337222027047,150.07092335174383
1.35,-153.23014222485097,150.10317234124054
1.375,-153.25870042353,150.12827055370488
1.4,-153.3074650374498,150.16103959842914
1.425,-153.35798633495745,150.1984162605925
1.45,-153.38310562115925,150.2236260256607
1.475,-153.28190637431322,150.14781088230097
1.5,-153.23997564689546,150.1090988149175
1.525,-153.18042824844196,150.05202070214685
1.55,-153.06907728407737,149.94881455788538
1.575,-152.83113678801746,149.72634418487914
1.6,-152.35389797562814,149.27107134283088
1.625,-151.53571510404794,148.50750482224493
1.65,-150.3792674515044,147.5029788860655
1.675,-149.11670827166284,146.50077239286932
1.7,-148.07784626085623,145.74501015891101
1.725,-147.43455137014593,145.37027577590877
1.75,-147.18305001101916,145.37575794787642
1.775,-147.25443203533618,145.64009913085204
1.8,-147.60162887418414,146.04656656530653
1.825,-148.19795682925397,146.5581477554195
1.85,-148.99579085346502,147.17585323053905
1.875,-149.9163384579158,147.88306855570778
1.9,-150.87652380614435,148.6388587301888
1.925,-151.80929757019402,149.40254661191295
1.95,-152.67258112325635,150.1589637285944
1.975,-153.4597630507735,150.91026741253293
2.0,-154.19253547171613,151.6441630388202
2.025,-154.90112087463103,152.34094324149476
2.05,-155.60234702323723,152.99602924748245
2.075,-156.29673928421317,153.6205250703349
2.1,-156.97783800865722,154.22677198242317
2.125,-157.63593622489907,154.81524283150125
2.15,-158.2641072638182,155.38417506282426
2.175,-158.8592439274594,155.9375310378636
2.2,-159.4296731607477,156.48657032390727
2.225,-159.99878882514025,157.04947952188851
2.25,-160.58623074638734,157.639202459781
2.275,-161.16598573516598,158.22703574166056
2.3,-161.6596527404723,158.7349587060966
2.325,-161.9833208074783,159.0792323485612
2.35,-162.0974111739216,159.2157119187318
2.375,-162.01981810087395,159.15614988521315
2.4,-161.802754970613,158.95345660143465
2.425,-161.4969037585311,158.6705345713961
2.45,-161.1301179036731,158.3538122302387
2.475,-160.71079632099935,158.0232281722008
2.5,-160.24239067259174,157.679545364804
2.525,-159.7385046647131,157.32195174428875
2.55,-159.22903627744068,156.96633433220282
2.575,-158.7759684485681,156.67313070844844
2.6,-158.4579506486877,156.52134778942263
2.625,-158.29625590697552,156.5226017691637
2.65,-158.21977607189098,156.58751100435836
2.675,-158.12913209624784,156.5933490791871
2.7,-157.96774628329,156.47070312078014
2.725,-157.76048541692754,156.25993697824578
2.75,-157.59390381444092,156.07666623944257
2.775,-157.55070701213901,156.00628500482313
2.8,-157.63161981045133,156.04478498777132
2.825,-157.75211244242377,156.13011883404056
2.85,-157.8275869516236,156.18631026461233
2.875,-157.8468182885318,156.170350742061
2.9,-157.85059761428772,156.08726127254315
2.925,-157.84710956253673,155.93989834499226
2.95,-157.8415614383968,155.7527857109425
2.975,-157.86156430714996,155.5615849350658
3.0,-157.9272805737918,155.3791857480177
3.025,-158.02417337279152,155.20278220780247
3.05,-158.0977073332536,155.0139517930037
3.075,-158.05153278570657,154.7468046848997
3.1,-157.76682588842056,154.30122877296046
3.125,-157.17213748293992,153.630663436871
3.15,-156.2858443621453,152.78499719127518
3.175,-155.18910414832206,151.85976679614805
3.2,-153.98297611154038,150.93321260979232
3.225,-152.75668079142358,150.0430407879875
3.25,-151.59482576676317,149.22139833893615
3.275,-150.5973797777748,148.52533276266004
3.3,-149.87590979653686,148.02562763595918
3.325,-149.52202930507718,147.77555622389946
3.35,-149.54310497198497,147.76712520965742
3.375,-149.82934308385904,147.92769405299688
3.4,-150.22414477370515,148.17261850380558
3.425,-150.62332561726967,148.44478789517862
3.45,-150.97292189108464,148.69736983615314
3.475,-151.23095424597815,148.9010315496871
3.5,-151.38384160740483,149.07230286167365
3.525,-151.46328999958249,149.24416048925704
3.55,-151.5267229808283,149.44182770106156
3.575,-151.6376716224497,149.6979334886477
3.6,-151.86779529640773,150.05140910240166
3.625,-152.26628936908125,150.5104970444684
3.65,-152.79524793412304,151.02239566963087
3.675,-153.3244189881889,151.5005810449967
3.7,-153.70740601754028,151.88624443921304
3.725,-153.86272724145485,152.1667072510789
3.75,-153.80511638377882,152.34473174762044
3.775,-153.66134797718482,152.457598257603
3.8,-153.67316217959842,152.63004276562864
3.825,-154.09669601215217,153.0229166188209
3.85,-155.07050288089465,153.7250748163053
3.875,-156.5160269561602,154.68131580709436
3.9,-158.1502100039708,155.7161301445069
3.925,-159.63556914141992,156.62300302406658
3.95,-160.7138565470369,157.2127076040488
3.975,-161.26354066366753,157.36637304551468
4.0,-161.2443590596494,157.0308853458306
4.025,-160.62916530068827,156.1809028623847
4.05,-159.4579968234958,154.88650643939548
4.075,-157.94610779486703,153.39083277174606
4.1,-156.3743082071722,151.93649615054082
4.125,-154.78655446522666,150.55056640235088
4.15,-152.95064641486272,149.1546517883896
4.175,-150.66936571612152,147.7348446792065
4.2,-148.11929209631535,146.47364825555587
4.225,-145.76154077904079,145.62260872602474
4.25,-144.02582509674818,145.27657239793731
4.275,-143.14000628824203,145.32720459726278
4.3,-143.06536964620454,145.55452686369625
4.325,-143.52612635396648,145.76692610700437
4.35,-144.23488362092567,145.89448553844892
4.375,-145.07596859217296,145.94732034827
4.4,-146.04990145197712,145.947296834784
4.425,-147.1341658982189,145.9169497857371
4.45,-148.1339285212236,145.8091770723954
4.475,-148.73720932153253,145.51679586589844
4.5,-148.7096614654991,144.94665503577053
4.525,-148.0081209461376,144.06340642186396
4.55,-146.7485452858451,142.9084610267666
4.575,-145.09027133862807,141.52897659018416
4.6,-143.27662050178895,140.0457183183673
4.625,-141.54156533816695,138.58842506655915
4.65,-139.9695106884309,137.21967097391558
4.675,-138.46436039745356,135.94399027911646
4.7,-136.84335822377085,134.75247645332993
4.725,-135.00593549956196,133.6553704565342
4.75,-133.03829263664952,132.68895867194527
4.775,-131.15179867980487,131.87506595993358
4.8,-129.49464293525983,131.1934057015248
4.825,-128.0419517867159,130.63512233205327
4.85,-126.68730916299722,130.1923356342653
4.875,-125.37963673680348,129.8091560393383
4.9,-124.14843543394143,129.4235837302529
4.925,-123.03597343991275,129.02175907054527
4.95,-122.05530769377961,128.62707153686202
4.975,-121.21866847628813,128.25887059859605
5.0,-120.53890317448091,127.91445026816122
5.025,-119.99953864428768,127.57684128514441
5.05,-119.55612483041979,127.23554386068265
5.075,-119.15418397851458,126.90233031890465
5.1,-118.72646361123816,126.59894497164414
5.125,-118.21705760499862,126.32915988348915
5.15,-117.64084276090787,126.09669363319333
5.175,-117.10916304123992,125.9242889642413
5.2,-116.79478456523995,125.82345670252028
5.225,-116.79771788871119,125.79212763111894
5.25,-117.0173240221271,125.82860946829281
5.275,-117.23321242447155,125.92322296261233
5.3,-117.24922442607262,126.06699650336141
5.325,-116.96329606839613,126.26329699743364
5.35,-116.42611622886088,126.51300027741162
5.375,-115.77420557378969,126.79718890456955
5.4,-115.1452392728055,127.09306679986598
5.425,-114.6142951696473,127.385409427379
5.45,-114.17489541842721,127.65971748344764
5.475,-113.78875328871608,127.9022993467308
5.5,-113.4337300796639,128.10730520689282
5.525,-113.13448997308777,128.28335873607173
5.55,-112.9600318065054,128.44501948498234
5.575,-112.96498729323064,128.6071510416073
5.6,-113.12629314338014,128.77417167745125
5.625,-113.35570109218345,128.93195624851612
5.65,-113.53492248180093,129.0356110566867
5.675,-113.5710831546443,129.04561599054705
5.7,-113.51111956546013,129.0275720585071
5.725,-113.44788202596203,129.02556990768718
5.75,-113.4377190209972,129.03470248006346
5.775,-113.46870529768411,129.04922257492817
5.8,-113.49509949641283,129.0674196706258
5.825,-113.50474194722194,129.08343926517784
5.85,-113.53280681026162,129.0863983751033
5.875,-113.6432375885257,129.07513408627642
5.9,-113.92435561776081,129.07986621059683
5.925,-114.43213190681212,129.14001312281172
5.95,-115.08488827768329,129.22970492313493
5.975,-115.76135131194789,129.32783899881025
6.0,-116.37470187239066,129.42603353909197
6.025,-116.87988829039469,129.5103436306935
6.05,-117.27070924413906,129.5695353911067
6.075,-117.57003478429145,129.6023570978704
6.1,-117.81793024806429,129.62599401199992
6.125,-118.0742729568754,129.66861153397107
6.15,-118.4145422965379,129.74553214662873
6.175,-118.90543681421254,129.8510618551881
6.2,-119.60407236900387,129.96297365876595
6.225,-120.57804503835531,130.04808389422
6.25,-121.89297970205062,130.08680435795785
6.275,-123.57832195978742,130.10140741299648
6.3,-125.60922108901349,130.15350317685812
6.325,-127.9154292386947,130.30308367679973
6.35,-130.4282084411722,130.60145434567923
6.375,-133.1020367378278,131.11753090530883
6.4,-135.87992065127742,131.9170974349108
6.425,-138.67427172621856,133.03747564530963
6.45,-141.3796116785127,134.49013717150345
6.475,-143.90228375525282,136.21724508584393
6.5,-146.19542907428877,138.09631633324446
6.525,-148.26245330115785,140.03767244878014
6.55,-150.13342173771528,141.99410677669292
6.575,-151.82511988111065,143.9073603108613
6.6,-153.33876279402307,145.7225290178161
6.625,-154.70349993420973,147.4381490139582
6.65,-155.91763223151625,149.01852948800146
6.675,-156.95849722541013,150.40981279555467
6.7,-157.81529376177681,151.57812120758314
6.725,-158.48556072357724,152.5076376199353
6.75,-158.95598130608778,153.18518058855815
6.775,-159.20183744652402,153.59398795458625
6.8,-159.20635268734375,153.71751412740568
6.825,-158.96870642214768,153.5459020980947
6.85,-158.500824196682,153.0855001294871
6.875,-157.82041117663454,152.36661845472167
6.9,-156.94294852675895,151.45199877976918
6.925,-155.8835882320116,150.443600458339
6.95,-154.66557852332937,149.46173687887244
6.975,-153.3364845944075,148.6082642106697
7.0,-151.9735921537248,147.9391705042134
7.025,-150.6656842482688,147.45304731054205
7.05,-149.49240463405377,147.10514661298225
7.075,-148.5132130818896,146.83756835244367
7.1,-147.76387045759054,146.6081050007265
7.125,-147.2543685542437,146.40109054219317
7.15,-146.96841879568257,146.22205904542253
7.175,-146.86404517197823,146.09404537944448
7.2,-146.88180947082301,146.04425822649245
7.225,-146.96357785099775,146.0779360192617
7.25,-147.0640999275008,146.16682923908465
7.275,-147.16078795012575,146.27146643625017
7.3,-147.25944160156655,146.37297081179392
7.325,-147.3792197352363,146.47630639213855
7.35,-147.52888978515244,146.589275388272
7.375,-147.70106598311983,146.70665610701064
7.4,-147.8860662340993,146.81488305866978
7.425,-148.08359000559724,146.90427964311928
7.45,-148.29377371899162,146.9702171905185
7.475,-148.49140217891346,146.99749490212554
7.5,-148.63800893937457,146.9668851855193
7.525,-148.7410299045324,146.8962667536162
7.55,-148.81921287019458,146.80716163216536
7.575,-148.8725704950597,146.7101398882204
7.6,-148.88697741506593,146.61470301011167
7.625,-148.85245433893084,146.53036320079954
7.65,-148.7740687492389,146.45911837188928
7.675,-148.66641632165846,146.39712427622237
7.7,-148.54091418814716,146.34200290184205
7.725,-148.40775751021866,146.29616908460113
7.75,-148.28446560787145,146.2653586985021
7.775,-148.19198299907495,146.25451216309267
7.8,-148.14651206479635,146.2658442870439
7.825,-148.15353462799084,146.29412161312777
7.85,-148.20963501701544,146.32995440999875
7.875,-148.30707075816667,146.3690995058172
7.9,-148.43756943768895,146.4121002793382
7.925,-148.5974766836731,146.46147415524243
7.95,-148.78330439463474,146.5195047179656
7.975,-148.9794766634859,146.5817718238437
8.0,-149.15242334357694,146.6309242533077
8.025,-149.26240269600868,146.64278462576598
8.05,-149.2902112471715,146.60156660587683
8.075,-149.25519116431863,146.51584647220733
8.1,-149.1937402177281,146.41716539276186
8.125,-149.1119455431381,146.33366378089073
8.15,-148.9764406011914,146.26781248545424
8.175,-148.7701184751583,146.21217793261138
8.2,-148.51580402964262,146.14942141943416
8.225,-148.20972492316662,146.008101045832
8.25,-147.85848201502301,145.75574759132724
8.275,-147.4652529344237,145.41776029280666
8.3,-147.02133672970626,145.05158973883178
8.325,-146.52551707948186,144.71332300004224
8.35,-145.98852076036056,144.42965560515503
8.375,-145.43419266085613,144.20009883653682
8.4,-144.90284642196696,144.0130076034389
8.425,-144.43424799237962,143.85002733526355
8.45,-144.04720266151338,143.68899317650025
8.475,-143.73674366330314,143.51650117763745
8.5,-143.48159897052201,143.33871353823002
8.525,-143.2551562890096,143.17362526071267
8.55,-143.0348360640203,143.0303955688573
8.575,-142.82101679227884,142.91359033283464
8.6,-142.6512029643148,142.84199349077952
8.625,-142.5907765283504,142.84681240530247
8.65,-142.68609992845444,142.94537037934438
8.675,-142.9197908769611,143.1243549052269
8.7,-143.2486366141743,143.35842554351336
8.725,-143.68605686946162,143.64177468722028
8.75,-144.29671660040918,143.98614434087517
8.775,-145.09667743431066,144.4041069130948
8.8,-146.0049706457371,144.89816492882403
8.825,-146.90005350796983,145.44136478630375
8.85,-147.69255181242966,145.97009482876885
8.875,-148.36208501732202,146.4193659147132
8.9,-148.95199822282808,146.77328263301155
8.925,-149.5169246682683,147.0705701541208
8.95,-150.04434953126645,147.34624412700288
8.975,-150.44232852673906,147.5966022826434
9.0,-150.6229110572265,147.79934194447205
9.025,-150.5903851337965,147.94827474470617
9.05,-150.44214359129325,148.057070809173
9.075,-150.2949601701831,148.14099520341105
9.1,-150.20044354454427,148.21388409064573
9.125,-150.1151691224131,148.2773175504723
9.15,-149.97381498018692,148.311868567699
9.175,-149.7919807376592,148.30792457902004
9.2,-149.63124515623133,148.26147143660003
9.225,-149.5437787140369,148.19885429279483
9.25,-149.5304386849856,148.16237015422382
9.275,-149.5501492661244,148.17096605115262
9.3,-149.5801406520042,148.22186010317589
9.325,-149.63675719738913,148.3022683055176
9.35,-149.7440532707735,148.39951656531736
9.375,-149.90434457500737,148.51100236691693
9.4,-150.09524102822243,148.64267864675122
9.425,-150.2944996259683,148.80069913904626
9.45,-150.50141170603928,148.98365495334846
9.475,-150.7276017973031,149.18523703584222
9.5,-150.98050096042874,149.40539989796525
9.525,-151.25757868883431,149.65433908737447
9.55,-151.55129556489612,149.94536676702347
9.575,-151.85555285938847,150.2820081419715
9.6,-152.16516331472997,150.64941693564964
9.625,-152.46866865814698,151.0204906798833
9.65,-152.7468092557143,151.3738710121639
9.675,-152.97971820346646,151.6990198906221
9.7,-153.15527051909953,151.9861358872809
9.725,-153.27042842594383,152.22314810621253
9.75,-153.33111219062442,152.402419433057
9.775,-153.35572253412445,152.52983311377753
9.8,-153.36584154079605,152.62632993077912
9.825,-153.3719923839804,152.71875282690036
9.85,-153.37190441742143,152.82525367479727
9.875,-153.35855745869284,152.94628142004527
9.9,-153.3319966485455,153.07319577843862
9.925,-153.29923417446082,153.19475063340613
9.95,-153.26636666027863,153.2949873988028
9.975,-153.23888985971044,153.36016944628028
10.0,-153.20919093863924,153.37490745979727
10.025,-153.1565048792388,153.32397812082854
10.05,-153.09426445047393,153.22958546739304
10.075,-153.0405126710621,153.11641725681005
10.1,-152.99003813073452,152.98802576282847
10.125,-152.92247262331554,152.83645434379062
10.15,-152.81930207269673,152.65442858986296
10.175,-152.66758900376473,152.43997155283486
10.2,-152.4556386656277,152.19501879116885
10.225,-152.1789353631238,151.92775149564523
10.25,-151.85332332205496,151.65494743520117
10.275,-151.5198423665737,151.399515979882
10.3,-151.22418913454277,151.18672824523838
10.325,-150.9928160043633,151.04179625707144
10.35,-150.83398746683287,150.9801762145371
10.375,-150.73877417249943,150.97185541018086
10.4,-150.6825117993919,150.9513475458628
10.425,-150.6146037969334,150.82778085050936
10.45,-150.4704564067788,150.50480739702698
10.475,-150.21395079680366,149.9325187499113
10.5,-149.84475025328553,149.15317228470974
10.525,-149.34324774456246,148.29343671561634
10.55,-148.63295697470883,147.48527068742695
10.575,-147.62276070270508,146.78921321833795
10.6,-146.30192584191113,146.23814541979942
10.625,-144.7951979383562,145.90583084458103
10.65,-143.3195175770271,145.8349884441639
10.675,-142.06573241362312,145.97460214298053
10.7,-141.10669681434496,146.20477235084059
10.725,-140.40672146548766,146.3868819646856
10.75,-139.90257187814206,146.4189758217396
10.775,-139.56604078809195,146.2684982474548
10.8,-139.4063869775863,145.96273689682835
10.825,-139.42644001189026,145.55799514438763
10.85,-139.57921273521507,145.12275959725818
10.875,-139.7788352851492,144.7190375072132
10.9,-139.93446693951037,144.37089691524977
10.925,-139.96554375836615,144.0699209139944
10.95,-139.86588560585537,143.8203006676526
10.975,-139.76477435174016,143.6523446220218
11.0,-139.840020156523,143.60139564313573
11.025,-140.1831994802025,143.69765120697696
11.05,-140.76117087249384,143.94542338946545
11.075,-141.4700544663005,144.29734224784212
11.1,-142.22165003165844,144.6809643956924
11.125,-142.97862268003962,145.04308758187793
11.15,-143.7354304889686,145.36119873355904
11.175,-144.49754537352123,145.64208153430468
11.2,-145.27692367572504,145.9121663411976
11.225,-146.0878840386842,146.20179671907542
11.25,-146.92886948784476,146.53486057296584
11.275,-147.7774872151953,146.9220629875826
11.3,-148.60258415106853,147.35529306248569
11.325,-149.3731562193553,147.81333361814916
11.35,-150.055936046016,148.2627002358874
11.375,-150.61314605469556,148.6572761325813
