Time [s],Flexion(+)/extension(-),Sidebend left(-)/right(+)
0.0,3.725766508516468,5.759394002048913
0.025,3.6905981088662774,5.7546173616031195
0.05,3.6191895675698023,5.7428426122612395
0.075,3.5296583369399586,5.722039432775751
0.1,3.4510919435431386,5.695836727840306
0.125,3.377900246666505,5.671630913205812
0.15,3.2955352462259464,5.651266004660863
0.175,3.2120853226197283,5.634562698580032
0.2,3.1377190247638853,5.62662021740274
0.225,3.0751967133222053,5.632207487930917
0.25,3.0189294653984433,5.648082956701642
0.275,2.968823355582492,5.664311165621287
0.3,2.9365904686566564,5.678623922852005
0.325,2.9281170573916784,5.694380943437706
0.35,2.932729223925298,5.707162436653706
0.375,2.943250797044903,5.716700240868536
0.4,2.9622915359805875,5.725084986106233
0.425,2.9916226625935307,5.733847362616709
0.45,3.0288764760360185,5.742341653128931
0.475,3.070414429175175,5.748367385287046
0.5,3.1144803663080403,5.7496780701055235
0.525,3.1638249290238574,5.746454386173883
0.55,3.2231382324213915,5.741563989305755
0.575,3.296139127531879,5.74851057434734
0.6,3.381631841426092,5.789635085710839
0.625,3.4758292248231224,5.836040714750346
0.65,3.5575864319518824,5.859389974710962
0.675,3.598834887380643,5.869055761825486
0.7,3.6116535634762403,5.868207461983899
0.725,3.6323806812511377,5.8570465503547195
0.75,3.675416523567833,5.844793354517054
0.775,3.7183001291531763,5.832851091750699
0.8,3.7517174496605192,5.821677730413442
0.825,3.7984410985272556,5.819202201219742
0.85,3.8589392366871103,5.827752032759824
0.875,3.9130853804361068,5.844027087161377
0.9,3.981058464311811,5.863279192621752
0.925,4.0869815966096645,5.878042429264723
0.95,4.192649562095935,5.881805258497013
0.975,4.292820866972411,5.877736735939532
1.0,4.395623336519098,5.876171661236922
1.025,4.5066249279593285,5.88065069950829
1.05,4.625012784480985,5.889213593615183
1.075,4.742028189362222,5.897473503150164
1.1,4.849761982572436,5.903437327479822
1.125,4.9637866789683445,5.911715050823018
1.15,5.099271743780939,5.9218054063982155
1.175,5.240602800178097,5.928658686235197
1.2,5.389299754638731,5.946991920486823
1.225,5.5663400614730145,5.962896029108427
1.25,5.7739855985041535,5.966216742603666
1.275,6.003285760458442,5.981070132193765
1.3,6.3030199234251825,6.0243902925324715
1.325,6.773249637573581,6.1142827067390835
1.35,7.500851562664716,6.271889713419691
1.375,8.536332366653049,6.505201398341546
1.4,9.894634333047803,6.798946861267337
1.425,11.591125816010443,7.135449312363788
1.45,13.650986942258017,7.498181331640081
1.475,16.056820733132636,7.861830542473753
1.5,18.699956594175326,8.22541735226215
1.525,21.357067066177724,8.666429170959521
1.55,23.72970422772279,9.210006593825625
1.575,25.657966295002993,9.707808577169466
1.6,27.117514816735987,10.034585283187198
1.625,28.04167757166335,10.23477167321654
1.65,28.476303213117596,10.31066956842314
1.675,28.688204761545023,10.250334079653085
1.7,28.883796362327892,10.09476288174516
1.725,29.216456119656254,9.934258910995325
1.75,29.756629411351987,9.831154452075541
1.775,30.429134173131295,9.786165900178784
1.8,31.073844740568116,9.748621437765634
1.825,31.617378303900523,9.662470061997992
1.85,32.0985653142688,9.481011323218366
1.875,32.5913930590922,9.19154000747401
1.9,33.090179673222984,8.799380724487145
1.925,33.553829301665374,8.313794836645112
1.95,33.97225969235159,7.778883668696042
1.975,34.32128535946685,7.251790384182781
2.0,34.554796884285125,6.767034353343557
2.025,34.65408001852187,6.346375066560592
2.05,34.65114492811175,6.003995672932232
2.075,34.59785490255942,5.752449072529718
2.1,34.55292626982826,5.607218365449852
2.125,34.53696149780034,5.551679552150295
2.15,34.501246955000134,5.569503199195895
2.175,34.44033642562135,5.683219305520679
2.2,34.3678322971725,5.931728993586449
2.225,34.26744027980086,6.322976389296939
2.25,34.14840899089632,6.821710602828716
2.275,34.06110876749968,7.331617574219655
2.3,34.1048355844104,7.731565587618884
2.325,34.34294156521106,7.989897725062575
2.35,34.79225341939017,8.151625232746468
2.375,35.455796432411844,8.264273150145323
2.4,36.20859849666939,8.352299110445962
2.425,36.58751260865309,8.456036837521308
2.45,35.90956657772941,8.603576762390503
2.475,34.12157108230019,8.684248784669588
2.5,32.00863680638495,8.564954019712708
2.525,30.416003970545205,8.231237934771562
2.55,29.688227646609715,7.833174599946817
2.575,29.78626607381129,7.517253392559109
2.6,30.477830498345256,7.325097354968716
2.625,31.49496514337935,7.200982669126935
2.65,32.689194523563366,7.041584406887485
2.675,34.04257228258877,6.827303254733559
2.7,35.55035626081391,6.575512582144368
2.725,36.99680603967486,6.31753591927986
2.75,38.07122210740473,6.111609346415742
2.775,38.689830308529245,5.945981576458193
2.8,38.953706533410205,5.775160646255404
2.825,39.019353304628694,5.568573164500075
2.85,38.982890707344055,5.35139885869562
2.875,38.84365475752005,5.186856816697604
2.9,38.620120973135045,5.103350010376563
2.925,38.411703180220385,5.106310736563127
2.95,38.3171577444792,5.1872119899978975
2.975,38.33026110195886,5.323663092941929
3.0,38.37750307736382,5.500165756125275
3.025,38.372194496801406,5.685683005279798
3.05,38.33817393132214,5.816647432766757
3.075,38.336591216556194,5.8158788341284815
3.1,38.43052195859328,5.640579707855151
3.125,38.63444725907829,5.312629453350438
3.15,38.93348389375807,4.9143468577778835
3.175,39.355561130309,4.480993979358872
3.2,39.94729794172441,3.9490466234064914
3.225,40.61657902596277,3.2989274928642605
3.25,41.06453122659637,2.5618740722521243
3.275,41.186475394048166,1.723999157940961
3.3,41.10815122489772,0.7890958584884673
3.325,40.950408998079965,-0.12981805251884962
3.35,40.773652980865414,-0.9193530071537801
3.375,40.59507829533533,-1.4875745408017826
3.4,40.43726856909955,-1.7952648243891578
3.425,40.359326886288464,-1.866134377665516
3.45,40.38799620876367,-1.7549850490789893
3.475,40.47303619569326,-1.522800468688121
3.5,40.493704581266655,-1.2355826989512642
3.525,40.35450089445494,-0.8533311609303377
3.55,40.02773683695066,-0.26863234835893673
3.575,39.47618289756594,0.5186024911584487
3.6,38.748971367030215,1.2191244539247534
3.625,38.02590790319609,1.4772578591926726
3.65,37.38728454859509,1.3843954757267485
3.675,36.69138871683026,1.2485697191688263
3.7,35.91488939092733,1.2072437067772621
3.725,35.26339220820486,1.2279285663366672
3.75,34.780047166713075,1.193865433524947
3.775,34.34558605494066,1.1154035125780402
3.8,33.75435760578228,1.0794393379207365
3.825,32.80707259000406,1.103044528041875
3.85,31.520395678672006,1.142347797787784
3.875,30.174101455880106,1.105062762955279
3.9,29.02510401225747,0.9791437193329373
3.925,28.219063753672852,0.8339552506324318
3.95,27.780196240098718,0.4474959942034402
3.975,27.432266325631392,-0.3624897528756112
4.0,26.660336999445434,-1.2415832210164135
4.025,25.40496845795038,-1.7554161079810964
4.05,24.006057679929416,-1.7556159221385044
4.075,22.522835142396552,-1.466712282770924
4.1,20.975256661265572,-1.1674981725952085
4.125,19.594342115813745,-0.8090792066453384
4.15,18.56970359030716,-0.29604725752013983
4.175,18.171075833739653,0.40536667694558093
4.2,18.54554132073078,1.1601701008509653
4.225,19.493540585369843,1.7955842022045807
4.25,20.61857473727177,2.1513842999718773
4.275,21.440718853205862,2.1185776059688886
4.3,21.752048787114155,1.8321124701744715
4.325,21.837594936875604,1.5674134773747568
4.35,22.00341915472604,1.5101448835405784
4.375,22.332274869058068,1.7422950588117745
4.4,22.756012516711753,2.2429311445535474
4.425,23.24715913859151,2.885531099353591
4.45,23.826236141227426,3.5031873263008255
4.475,24.488913663758378,4.013373427602315
4.5,25.1838673294888,4.459901715222942
4.525,25.83183424304175,4.942098012398328
4.55,26.326099100450246,5.464822549309532
4.575,26.58496290769985,5.982254680139862
4.6,26.659925372340737,6.439805699728294
4.625,26.655494966439676,6.77586043707948
4.65,26.65369214576702,7.010949994565306
4.675,26.67286853196308,7.217531607742902
4.7,26.726807808800675,7.474522203484616
4.725,26.815319911256573,7.801439400350132
4.75,26.940931348595242,8.10894900661986
4.775,27.09501646654243,8.29894816412879
4.8,27.25574284813467,8.36472588127786
4.825,27.4338640869364,8.398817092248736
4.85,27.699478637798023,8.503359863672584
4.875,28.03575793077122,8.662537390331735
4.9,28.32847549231126,8.815087638830075
4.925,28.484262182548793,8.956277020599266
4.95,28.46913334986047,9.111651585379526
4.975,28.278336246950698,9.20230145402537
5.0,27.851135655231136,9.078270323813593
5.025,27.313902268549697,8.891463898612647
5.05,27.134345503894632,8.97186577733449
5.075,27.418174579641896,9.272314760160812
5.1,27.670859227914057,9.509397129451973
5.125,27.509293155435493,9.583308156501829
5.15,26.84943715558905,9.45731478735194
5.175,25.928570688947755,9.176047255022773
5.2,25.130610170381672,8.89894244835661
5.225,24.72903748088,8.68283316427833
5.25,24.75833426546115,8.45132621762822
5.275,24.955079003540767,8.213291980103483
5.3,25.021041642419014,8.108656135567104
5.325,24.882611096997874,8.209068333148736
5.35,24.61919878267867,8.429005441570315
5.375,24.351660494981292,8.638570119092906
5.4,24.16273149723384,8.781661196278119
5.425,24.100588467414088,8.925197207221744
5.45,24.147422360128658,9.151232158252155
5.475,24.201657635958377,9.417970304055599
5.5,24.18666190861878,9.662009153216735
5.525,24.05696438078476,9.89048428325092
5.55,23.71848839319624,10.15561765318296
5.575,23.126113902427097,10.504520856272041
5.6,22.303406874123095,10.928035433841035
5.625,21.27441331690131,11.332453382314442
5.65,20.07140364389632,11.564479217602852
5.675,18.751957929877815,11.535930218729758
5.7,17.402968261296426,11.30065957038153
5.725,16.12101037776697,10.925776042730172
5.75,14.981164465509702,10.474085563504513
5.775,14.04215595839619,10.031950761110974
5.8,13.33044606743091,9.679377455216827
5.825,12.819519756647681,9.448906069316983
5.85,12.464409893741232,9.328619366691315
5.875,12.189134764345175,9.278098765481317
5.9,11.90578151811999,9.279467398701987
5.925,11.556961206144194,9.331049503660571
5.95,11.14276758076219,9.404272601851343
5.975,10.700286204683707,9.46721575280423
6.0,10.283315532213537,9.526239962997362
6.025,9.91842942191528,9.60803858076809
6.05,9.601040084356447,9.712831054175268
6.075,9.349285263460784,9.833009238209673
6.1,9.210161959511693,9.994064841679776
6.125,9.217768319032169,10.195098927975641
6.15,9.329504813727436,10.419925124726642
6.175,9.462851475815732,10.66525107542007
6.2,9.618371909676588,10.934757013509282
6.225,9.805309836639891,11.193848241760142
6.25,9.985780301569447,11.37463111444815
6.275,10.111492649006799,11.40342878670595
6.3,10.20155967322746,11.247420410796359
6.325,10.35515643751292,10.955978341702972
6.35,10.63597350424055,10.632041377519968
6.375,10.939355390150828,10.351635606100523
6.4,11.105572302088152,10.144200267163527
6.425,11.093845841229223,10.01110928619209
6.45,10.953018365973758,9.951072149893559
6.475,10.758076157069134,9.955676048936331
6.5,10.553997952195274,10.00293846594844
6.525,10.373706094945181,10.068916271248087
6.55,10.25016332101711,10.121515696292567
6.575,10.183256380647418,10.154398725761359
6.6,10.16359381957931,10.184811765814915
6.625,10.174230117524813,10.228427821541967
6.65,10.193047958202522,10.292986429816224
6.675,10.244472447376413,10.400123749934668
6.7,10.344593752431159,10.548613590163601
6.725,10.482777475426651,10.681584303768547
6.75,10.656107120983176,10.763729082406348
6.775,10.873601513792591,10.800519856578973
6.8,11.109459539489984,10.790408788189529
6.825,11.297590413519382,10.720072694652908
6.85,11.382330048408015,10.591290732988073
6.875,11.34659783123533,10.418471920568624
6.9,11.224562291413099,10.228457072548796
6.925,11.098317758987976,10.055984948038288
6.95,11.045546387686088,9.902626798722489
6.975,11.093657694972578,9.738083467020052
7.0,11.214773449856828,9.536198864118294
7.025,11.357005130417726,9.306638183540626
7.05,11.47117685388504,9.081526739522271
7.075,11.57201617355912,8.89236079751611
7.1,11.686797469404425,8.738953257165802
7.125,11.811473900555196,8.625099169460574
7.15,11.962495601547895,8.56821219259692
7.175,12.194019748202777,8.570317177518817
7.2,12.55436980943479,8.621796213287347
7.225,13.036522177798865,8.711633888364112
7.25,13.542840276215834,8.779241025942984
7.275,14.028213351727752,8.796033610368308
7.3,14.462784575718647,8.814523791586623
7.325,14.808499182539922,8.835690781322073
7.35,15.079410462056426,8.823458251883515
7.375,15.38219445633997,8.774442909583678
7.4,15.824983150564215,8.718507525515301
7.425,16.428563646375828,8.675881745291017
7.45,17.156824515018762,8.636691582169219
7.475,17.98008239616423,8.580151248484322
7.5,18.8279229047326,8.491476291072946
7.525,19.592882584973633,8.343555666721791
7.55,20.22367197341588,8.09936095949025
7.575,20.84164642843036,7.783513655798566
7.6,21.594543760555055,7.4459414582516015
7.625,22.473015077054153,7.103134633619479
7.65,23.34205342288873,6.748304108481196
7.675,24.063480851679724,6.386277302082793
7.7,24.62869064656559,6.060543414045733
7.725,25.073980967803504,5.800375443034039
7.75,25.39290197940735,5.605170102329935
7.775,25.624226631420356,5.498906518362494
7.8,25.83687074394984,5.547971759953289
7.825,25.9547950274857,5.755481267969478
7.85,25.900948141328932,5.978369774889928
7.875,25.869483138066503,6.161915000198518
7.9,26.051122284280552,6.319972089957249
7.925,26.42662988178221,6.435009322713604
7.95,26.93027048558251,6.510232631239857
7.975,27.528236419737873,6.5799007313633355
8.0,28.164752097463225,6.636409845790418
8.025,28.722701947193013,6.6635568804953005
8.05,29.101100186150788,6.721265895786348
8.075,29.296169997837808,6.85719011029015
8.1,29.36769077398237,6.986161380023261
8.125,29.389832639300913,7.00676901207757
8.15,29.441787355427934,6.970698465283753
8.175,29.60435687780209,6.976018558229687
8.2,29.91347814936139,7.037610293298897
8.225,30.36017051526668,7.13946642728443
8.25,30.838535720483716,7.267193833648465
8.275,31.193357920007696,7.378132532756057
8.3,31.39533760393631,7.46807121517799
8.325,31.53802853827349,7.582381257663661
8.35,31.722786782358654,7.754840236114021
8.375,31.95872735342625,7.966987175949382
8.4,32.15833182190343,8.145910957759936
8.425,32.32191265316702,8.256628431471482
8.45,32.49232675833214,8.327001860800475
8.475,32.62673614707866,8.436493485293372
8.5,32.64524108372919,8.598857886756266
8.525,32.49136274812879,8.70920294524546
8.55,32.21954897329589,8.619804361725853
8.575,31.990714755711377,8.207687262865331
8.6,32.01698896849139,7.511258161644925
8.625,32.407030306867924,6.76173443622445
8.65,33.10863576727127,6.213647931793906
8.675,33.9812252027801,5.9255056178713
8.7,34.8767503957299,5.768990298273226
8.725,35.72356168259124,5.62572135142574
8.75,36.45656830219611,5.476510411986036
8.775,36.918117886274004,5.370231504213906
8.8,36.93281749028555,5.3196544883123345
8.825,36.594067045077324,5.103347265158919
8.85,36.2129612961545,4.594906839748182
8.875,35.87635510772282,4.141473357785838
8.9,35.61377814349726,3.9792925991440686
8.925,35.483849985590716,4.018844799761906
8.95,35.44937236656224,4.153944503491953
8.975,35.44055559216236,4.352250558896335
9.0,35.397279999499055,4.597222906316439
9.025,35.35515690522159,4.8677713805395975
9.05,35.407692449202344,5.131228288862824
9.075,35.57398327236759,5.337166473562444
9.1,35.70667692777057,5.438534428499989
9.125,35.66516030280416,5.444272964387344
9.15,35.495593141548774,5.397358048584267
9.175,35.34578619667569,5.351044699345179
9.2,35.25384946672518,5.3528986177295605
9.225,35.135791731800886,5.404839897783951
9.25,34.92743037871594,5.473326514177912
9.275,34.63790585795722,5.51863875896386
9.3,34.314647961997586,5.522039858980862
9.325,33.983826888091954,5.499712206513472
9.35,33.66249224036582,5.4508414132592335
9.375,33.37544029435836,5.364309953210893
9.4,33.14055283673545,5.268877319402791
9.425,32.96531277237548,5.211446240520079
9.45,32.84598810785802,5.207292031308039
9.475,32.778154029043876,5.24052509473598
9.5,32.74709389837549,5.27626985282531
9.525,32.73937937261699,5.2836078958013015
9.55,32.72747509340585,5.272033052067233
9.575,32.66928393424408,5.319320656246077
9.6,32.55341943833291,5.4549160473688865
9.625,32.37907339999689,5.63440256796707
9.65,32.07852847850165,5.804565615760377
9.675,31.583751382260267,5.9058777497878525
9.7,30.849948835690423,5.913234144245232
9.725,29.893316172415133,5.855979240098687
9.75,28.739894476721254,5.765820245648386
9.775,27.411943500217212,5.637724826231239
9.8,25.975370463140056,5.441025566959211
9.825,24.537111965239035,5.173352009034566
9.85,23.21152336568712,4.890140433928475
9.875,22.057047939124377,4.624753888842493
9.9,21.094917432669597,4.369024285707387
9.925,20.282944546238777,4.106218413724265
9.95,19.543123409774665,3.8343314689397117
9.975,18.851142312850406,3.569655578975352
10.0,18.24454092191401,3.321304015725009
10.025,17.71582243048859,3.084228141110468
10.05,17.24122181575024,2.8570598699398237
10.075,16.830134475091054,2.6461077715422294
10.1,16.51774155684564,2.478362344523024
10.125,16.313668198448873,2.388245875519731
10.15,16.135414140658696,2.384287609193949
10.175,15.838391356019606,2.4315995962467816
10.2,15.30703519501859,2.4439223345980645
10.225,14.561217331126267,2.3706368107748
10.25,13.651170762795378,2.1890263374149885
10.275,12.696471880321766,1.9058093961965505
10.3,11.924886787003688,1.5983017928039307
10.325,11.508465186477661,1.329693785011778
10.35,11.42418918377052,1.1361651698016144
10.375,11.52183563482954,1.0112457329314803
10.4,11.672448700294991,0.9147324393869334
10.425,11.795355084554513,0.8333994240598293
10.45,11.840331031032857,0.7995230334896113
10.475,11.818075685374778,0.8558249223504494
10.5,11.756669879093959,1.0201248211070577
10.525,11.65981827034544,1.2530018788774495
10.55,11.489340013597905,1.490858468476212
10.575,11.188686805467947,1.6861887798914075
10.6,10.785749555828152,1.798709160317846
10.625,10.36413676684096,1.8084362830658864
10.65,9.968367722282988,1.7632766885594484
10.675,9.65625645550147,1.7449071143617234
10.7,9.521711266237691,1.805129914848948
10.725,9.635768463866272,1.9578590759704446
10.75,9.974746829004342,2.188246750592486
10.775,10.388250551653334,2.464232381473637
10.8,10.718343966803728,2.7329011038598874
10.825,10.972061176565585,2.961676582564518
10.85,11.152494847547716,3.1601404381557607
10.875,11.302982101576754,3.336547893323747
10.9,11.510686751421566,3.481811697535441
10.925,11.753961189716927,3.6065406046056854
10.95,11.905634778276475,3.7138283450727108
10.975,11.85494300386919,3.7656336022584744
11.0,11.725368405581566,3.732449287859327
11.025,11.780994276364236,3.6613341066134852
11.05,12.091110975865,3.6292046486608656
11.075,12.53741571631972,3.6295792313183837
11.1,13.05406572707486,3.6088752359118903
11.125,13.647099955711457,3.5789037802361454
11.15,14.29514233097119,3.567173129087183
11.175,14.929042141281919,3.551604089809196
11.2,15.494487278809228,3.5075276546313443
11.225,15.97396635619293,3.422139289345414
11.25,16.326976976892926,3.303048919402886
11.275,16.530569425977266,3.195037970965911
11.3,16.595709240249985,3.141930045155968
11.325,16.550571841580304,3.155596665187306
11.35,16.434584286803698,3.2227165091814207
11.375,16.286881322272812,3.336583752093026
11.4,16.08570415537025,3.4470877588146402
11.425,15.84005178829929,3.532470149594346
11.45,15.633069027435292,3.6160656510408353
11.475,15.516867385813164,3.69147856618453
11.5,15.468037721822096,3.7494619930262023
11.525,15.428562110187208,3.7969169640209373
11.55,15.354059514812258,3.8411681335212755
11.575,15.253221268630904,3.8874600018500605
11.6,15.16762777720664,3.9301570531023144
11.625,15.085384552085817,3.9556028461423947
11.65,14.960847004700126,3.9626476908504102
11.675,14.76901205126975,3.9489736678415994
11.7,14.529381379266042,3.9197565409731645
11.725,14.299442159397758,3.8872778103906707
11.75,14.12888409025223,3.8555400221274065
11.775,14.022934946657895,3.8282406698171934
