Time [s],Anterior(+)/posterior(-) tilt,Lateral tilt left(-)/right(+),Rotation left(+)/right(-)
0.0,0.35053085290864616,0.43539964060550895,2.6987034584812517
0.025,0.3533079503391497,0.4386824943251706,2.672440969386215
0.05,0.3569315194688158,0.440288738973882,2.637119157783977
0.075,0.36012215233390865,0.43872192933856197,2.601754985384779
0.1,0.3622801149479348,0.4385603942709548,2.5701998786365587
0.125,0.3636575331619478,0.4418003862340149,2.550945743118909
0.15,0.3654475283468205,0.4441775353606779,2.539208703033775
0.175,0.36848119831397563,0.44335192917708555,2.530751025275317
0.2,0.37118390860408085,0.43891546308618123,2.5231502759433133
0.225,0.37279432399311674,0.43120203153227493,2.5156823863491202
0.25,0.37605693626004627,0.42184577149698893,2.510332573368527
0.275,0.38335679175644266,0.4121977552944494,2.505343420840729
0.3,0.3929598143821831,0.4013612298031083,2.494540473909827
0.325,0.39836554302990423,0.38777692076384235,2.474850061562746
0.35,0.3906998788920654,0.369815006636236,2.449729240976895
0.375,0.36246158226890557,0.3446690155360564,2.423655829368301
0.4,0.3111480029460151,0.3091843207605635,2.3971551194023664
0.425,0.24021345359704757,0.2595758333590421,2.366766844918491
0.45,0.1495580702763527,0.19423097090121766,2.328923745985699
0.475,0.029953794739039575,0.11837005293558767,2.285561592066217
0.5,-0.1305674025242613,0.03722718675155618,2.239650693719885
0.525,-0.3410654482680659,-0.04918575472518911,2.1955753452585944
0.55,-0.6036303113464726,-0.13581650763803071,2.165415661959743
0.575,-0.9157414991536319,-0.21759883267309632,2.161781691946129
0.6,-1.2783555709692453,-0.3002166096418288,2.196546689529734
0.625,-1.693134960514988,-0.3855752559878192,2.282920439565306
0.65,-2.145995742018129,-0.46066711242259695,2.429854561059889
0.675,-2.5992541015921335,-0.5067294246560992,2.6405365898917594
0.7,-2.996422654574061,-0.504491802357799,2.904185195329326
0.725,-3.29220881237195,-0.4391570543796137,3.2037047300601706
0.75,-3.486147825184468,-0.3264563524239028,3.5118644338017444
0.775,-3.6043623686392223,-0.21312500348557856,3.8022097971324986
0.8,-3.67439107881142,-0.12757904411495144,4.086726198585082
0.825,-3.725522710622614,-0.05447681257115846,4.372052638459033
0.85,-3.767336205827462,0.026567967355701567,4.662511232828259
0.875,-3.793874436975863,0.11147405265204233,4.972715174226167
0.9,-3.806074702539551,0.1876308082837665,5.315765830700729
0.925,-3.810616305219736,0.26365352359295846,5.6909238872925965
0.95,-3.816466047684148,0.35289219840795777,6.090804846584717
0.975,-3.8519671696728466,0.43849536941259964,6.517176130231349
1.0,-3.972295836987895,0.49435002377620163,6.976266947104161
1.025,-4.226772017871558,0.5271339305396745,7.4626886157114685
1.05,-4.608334402914903,0.5815251448571807,7.972870723189834
1.075,-5.055943309288331,0.692028936556978,8.529463047226853
1.1,-5.502985660958205,0.8330928069018226,9.158938771174695
1.125,-5.9176705943959425,0.9353094880573888,9.868591024697038
1.15,-6.297933817376479,0.9516014021821022,10.63155382655516
1.175,-6.650175516499537,0.8955090563953844,11.424341710912428
1.2,-6.988342336939685,0.8143735997124139,12.2756958822626
1.225,-7.322652681374756,0.7508522175236673,13.256174528012314
1.25,-7.617696179736786,0.7407034337536306,14.4439484621368
1.275,-7.780100583221574,0.8185785356017504,15.896611042806166
1.3,-7.714760908003195,1.0000036344872651,17.624308746926253
1.325,-7.37416952332648,1.2703436119083589,19.606300737204833
1.35,-6.755544161649635,1.601682450664112,21.813542687010365
1.375,-5.86678434947017,1.9626192979573776,24.196386915153646
1.4,-4.728761742185405,2.3171048100266467,26.6523781541592
1.425,-3.4172821442994112,2.6259671002032547,29.0306517597176
1.45,-2.0626065943772227,2.860094295699001,31.212294304934698
1.475,-0.7939993126984853,3.017639412125448,33.175356313884514
1.5,0.29783705794248294,3.1088225616382825,34.95286997755324
1.525,1.1808936543769313,3.1282303125726965,36.572430366651155
1.55,1.8702739664284285,3.0472344360749797,38.03808491823209
1.575,2.3898943026157755,2.8355713735762884,39.33274334177424
1.6,2.7472376933312996,2.4950438275951625,40.4284316282268
1.625,2.9462792698734686,2.0691450716262967,41.317474968854505
1.65,2.9963067345224803,1.6103711215988106,42.01358511265947
1.675,2.898222800870656,1.1466716675231996,42.5381707427395
1.7,2.6593834486964574,0.6890865368422033,42.923121133881814
1.725,2.3444415201948177,0.2631588411257138,43.213575673032906
1.75,2.0853379559783107,-0.08863006200943717,43.46419870334711
1.775,1.993978872788729,-0.324387175228187,43.717146723472155
1.8,2.1061585201132815,-0.4261380528447171,43.98817633746862
1.825,2.398127999885857,-0.4333164282008622,44.2814658743939
1.85,2.7839661123190234,-0.44563244761430215,44.61286665986775
1.875,3.1062674020882683,-0.5424104490432019,45.00626725932271
1.9,3.2408233684553434,-0.6605092096146843,45.46429113134237
1.925,3.2076024219906247,-0.6713262357581198,45.95418450775334
1.95,3.0654103247440743,-0.525436927608179,46.39485477725065
1.975,2.826858303116086,-0.2929521013853548,46.71049836812796
2.0,2.4686517214962205,-0.06804085115521592,46.93464015872568
2.025,1.9387190087111916,0.08279444346412855,47.13887492516274
2.05,1.2396870317729078,0.05607510248064414,47.286833197794046
2.075,0.4866390265276141,-0.2336511810238084,47.32575113493698
2.1,-0.15326949744308707,-0.7391156031475151,47.282178987851026
2.125,-0.5809587704058347,-1.297251783359891,47.19204316448222
2.15,-0.7998669471224776,-1.7028796869116323,47.07117999434696
2.175,-0.9327991224984339,-1.8204414038768308,46.9584771260129
2.2,-1.1650776566318113,-1.6526546153534076,46.937168671858515
2.225,-1.507474444367794,-1.2897070020896841,47.08138220919539
2.25,-1.572027738434874,-0.8470665581344207,47.35138139617688
2.275,-0.9036154801311772,-0.4926944476835929,47.575242588003015
2.3,0.38973484831340055,-0.4013285242426731,47.5961460453794
2.325,1.801687397371898,-0.6726046281658387,47.393005874456705
2.35,2.9174580991535817,-1.2961944883868273,47.00635843274025
2.375,3.59692321377501,-2.0983741255926076,46.39346376230448
2.4,3.9632577916959013,-2.862654164340635,45.44857335449429
2.425,4.175103273085726,-3.4512088137449815,44.14429108715684
2.45,4.215226603904781,-3.7552516017303357,42.52443624729243
2.475,3.9634778298288937,-3.7644929345670666,40.616566378963185
2.5,3.3852046547657717,-3.653316101104475,38.462615987156
2.525,2.627848249056142,-3.6746951091555955,36.08144029724769
2.55,1.9627915144808161,-4.011467185300048,33.35774314507829
2.575,1.5304791460658462,-4.663423779484677,30.1465066141126
2.6,1.2156229428702494,-5.423231396308796,26.478144355315
2.625,0.8793228801650322,-6.0982890451956075,22.51445332319689
2.65,0.6162740096205753,-6.650383715834818,18.395088099824783
2.675,0.7126098037266726,-7.132280063393071,14.279190343994395
2.7,1.2648529977645762,-7.68765089122953,10.314273130211577
2.725,2.0593686527025254,-8.436466995381647,6.527465220471742
2.75,2.8340038368314913,-9.253589652088458,2.885469041150143
2.775,3.4358289661027306,-9.825505148193022,-0.574502492706625
2.8,3.876587984715985,-9.93491510079081,-3.7970130872139096
2.825,4.187948067522938,-9.632826176530264,-6.737192272658996
2.85,4.322539352318899,-9.171014122849904,-9.33472321492904
2.875,4.303869093642618,-8.78274292649353,-11.566062019347562
2.9,4.1823874180965745,-8.563871577044996,-13.430200643806003
2.925,4.027667361953333,-8.448483681032295,-14.935079642335749
2.95,3.9727386950392507,-8.300605869780558,-16.131319990000335
2.975,4.094224181366234,-8.00712887302815,-17.084935760917265
3.0,4.349492309765919,-7.4753483803136875,-17.858646322228626
3.025,4.573413592170644,-6.696583374810915,-18.47665889840755
3.05,4.595195419675006,-5.7988352593791035,-18.900207182754986
3.075,4.405512910924969,-4.9832236804585,-19.094382722533773
3.1,4.178067899826222,-4.329385967230991,-19.191187106953535
3.125,4.154099729310379,-3.704767470625236,-19.447137674197336
3.15,4.420553911092018,-3.0403448030102482,-19.940240608691294
3.175,4.793188845713364,-2.561992870779084,-20.517942262805107
3.2,5.00247898064322,-2.498111771168245,-21.095745544282686
3.225,4.893716294755793,-2.7629232181322787,-21.736126177059436
3.25,4.49905385912354,-3.069286001073546,-22.45975285479283
3.275,3.964699598673378,-3.220517763235267,-23.20131736221499
3.3,3.35695818717313,-3.1960009297718908,-23.87909778328707
3.325,2.6610843882571573,-3.042117856825893,-24.402537559437558
3.35,1.869789131186066,-2.7939758970389614,-24.730509625511104
3.375,1.1610827344824257,-2.4049080881729608,-24.946141913046834
3.4,0.7759585295995941,-1.8377609803740833,-25.121185166464425
3.425,0.6939294514765988,-1.1864493856251552,-25.225286201870468
3.45,0.7150465223775041,-0.5573810343748868,-25.185060233198037
3.475,0.690238416598616,-0.022059798483324858,-25.022443896060576
3.5,0.5150967729531801,0.3090460163415652,-24.775142868570118
3.525,0.12303555857934788,0.3118990469872828,-24.35426746154041
3.55,-0.4725015614833934,-0.03384956339148065,-23.68943894358405
3.575,-1.1656176348136655,-0.5788008076511504,-22.798795492996003
3.6,-1.7807134052095959,-1.0708632037825845,-21.619020711660802
3.625,-2.2120619644278747,-1.3686207821472731,-19.90540875781725
3.65,-2.5674463078745258,-1.6040367026098152,-17.34252130683498
3.675,-3.190763105515089,-2.0359483654949098,-13.834141624814041
3.7,-4.466033337927009,-2.6883762750787006,-9.586622100583849
3.725,-6.334000589941241,-3.09159519650351,-4.797228156768877
3.75,-8.104116501294854,-2.624672168387293,0.6059900475579151
3.775,-8.940052223510138,-1.2360081078358285,6.793004788098233
3.8,-8.525888203954144,0.5278965681505761,13.783040965471999
3.825,-7.139682136175359,2.201142146683264,21.41512323617535
3.85,-5.154098495842408,3.718826208744163,29.333793552944112
3.875,-2.851426856540895,5.077366529528232,37.0573630084941
3.9,-0.4932496603415604,6.139023002926785,44.34101867014835
3.925,1.6724020465373781,6.71288047152886,51.27185051950175
3.95,3.4789832177534774,6.751361760261366,57.74333225082537
3.975,4.877589506655833,6.510689555414295,63.44238964987619
4.0,5.910113535543033,6.330224611137364,68.23545091504292
4.025,6.6273489322294665,6.3754992430673685,72.17419525262918
4.05,7.20628486414136,6.602266613685137,75.41231328147717
4.075,7.950196937350184,6.754235221632261,78.14689159309022
4.1,8.972336567778079,6.668689196591445,80.47958574024362
4.125,10.0804726546646,6.451579000748363,82.46235608536686
4.15,11.099547949493925,6.291777079555186,84.20679100970399
4.175,12.040357839834765,6.237784424132395,85.82914760038557
4.2,13.004161048276785,6.182011023380453,87.39620991587681
4.225,14.090142842959995,6.024304882845883,88.95971578289318
4.25,15.433538303956151,5.816461648916614,90.56625772446792
4.275,17.0929902777775,5.697555943322838,92.25836510720146
4.3,18.9118496297034,5.693167595941334,94.10253713078137
4.325,20.687654949620327,5.623131897229556,96.27085277566013
4.35,22.268342763064222,5.266397407715187,99.03905745038033
4.375,23.40752539497979,4.759847339866014,102.53544505180946
4.4,24.000423693280567,4.4943064347918895,106.50340380362628
4.425,24.132300703052604,4.937617670283395,110.44802308843883
4.45,24.04148597252099,6.290425243867344,113.96594211347235
4.475,23.867785684907545,8.41389476500773,116.89075923739323
4.5,23.475589479280554,10.718670624231361,119.2331623319758
4.525,22.869681462415546,12.15999527706387,121.18156147924034
4.55,22.182004566276216,12.25926708465625,123.01177779857126
4.575,21.35918882838347,11.462533309855576,124.87339226498203
4.6,20.331695123239363,10.26837001579287,126.67620142579945
4.625,18.91781626803928,9.14193630989457,128.16973280321056
4.65,17.145144414304117,8.497954453854906,129.20062058169128
4.675,15.290104663789911,8.393243432472334,129.93004503155376
4.7,13.421578413926964,8.68156650195197,130.67959594920612
4.725,11.413838111641113,9.133321103226839,131.62536524518126
4.75,9.220943325435424,9.527930354269149,132.77064670307306
4.775,6.9210508349489315,9.926174446368107,134.08938720517327
4.8,4.66513197708688,10.58432825196971,135.6557408730979
4.825,2.557196451484953,11.572766651841393,137.53637003209033
4.85,0.6067264667811372,12.643688160616898,139.62403087370484
4.875,-1.089521088761531,13.477484312772903,141.78185165628616
4.9,-2.3792433782377485,13.975197528474144,143.97203117856128
4.925,-3.302405706844394,13.938667466616915,146.1175387426273
4.95,-4.05205281242886,13.17230466018862,148.05969795154877
4.975,-4.8186189740316046,12.058232463361252,149.7075105547233
5.0,-5.611426098274369,11.358620510453406,151.07739865631086
5.025,-6.329847053161321,11.409790915348495,152.19473478252104
5.05,-7.088291879788394,12.017038489037727,153.07015330206326
5.075,-8.197610557249153,12.891295458401684,153.7866523755732
5.1,-9.932219270691075,13.918005044470396,154.49101614882142
5.125,-12.396292372842002,14.857898502391315,155.15552953280843
5.15,-14.860728722208515,14.799665864069404,155.39732797112828
5.175,-16.074961478659077,13.458837125490945,155.0200565821716
5.2,-15.594227620137545,11.732865114670048,154.3454162255069
5.225,-13.427886195790387,10.208444491844677,153.67739226415404
5.25,-9.395349992427551,8.601301438414495,153.16236626749458
5.275,-3.6453902573627928,6.303760780249545,152.85438625954396
5.3,2.8394673323921054,3.3557679298168126,152.63579251928618
5.325,8.516790920291612,0.2805633714431813,152.29638484275173
5.35,11.993535036355635,-1.9930025305465011,151.713443903738
5.375,12.555084992839227,-3.1066942365573467,150.83194428709396
5.4,10.078910827475081,-3.4935853129971823,149.71858014523767
5.425,5.180000594270953,-3.8109877257793414,148.65428145276002
5.45,-1.5633156601674074,-4.382219629806744,147.84329391306176
5.475,-9.18032284382371,-4.55479408523038,147.21548390835378
5.5,-16.077408520418135,-3.266200792917658,146.81632169217485
5.525,-21.25948832325915,-0.2189518698947329,146.8511817146775
5.55,-25.152845872586276,2.894580861261526,147.24934522012651
5.575,-28.482351364651528,3.8304709955760705,147.73233779906312
5.6,-30.695415770233055,2.9333491170361263,148.0859715386414
5.625,-30.679228069980205,1.7960188125845091,148.15296009176652
5.65,-29.48544490174558,1.840472452258457,147.89160653004
5.675,-29.038513659870446,3.0671029642830057,147.4658144846048
5.7,-29.96960558362789,4.180949712389436,147.11729347373338
5.725,-31.37620044096438,3.92710941566479,146.93901466327608
5.75,-31.614834539319773,1.3519941963371096,146.85550081496118
5.775,-29.878092822960813,-3.522991731558105,146.8605281074506
5.8,-27.465990032861136,-8.591828229965554,146.976806660283
5.825,-25.67655844042186,-11.599944341461482,147.1462942504514
5.85,-24.213704180613153,-12.692330078705076,147.30976111157764
5.875,-23.191900223228213,-13.45611183551786,147.43512518024065
5.9,-22.765601056426092,-14.310917493894308,147.63094500458925
5.925,-21.46055857891863,-14.938887914531048,148.10616093856538
5.95,-18.23795582202946,-14.896767760935896,148.86587397117404
5.975,-13.350535405182152,-14.401835835231305,149.7615257073302
6.0,-7.714685546229386,-13.944074357322673,150.60785589788955
6.025,-2.287920180568034,-13.714061392956356,151.30373790291603
6.05,2.4820414781662055,-13.699326078717766,151.87003648810258
6.075,6.491766181514462,-13.669276995981273,152.2983599364526
6.1,9.72829744181307,-13.38987741265167,152.59927168481474
6.125,12.287443728145748,-12.67078329321233,152.84525726408435
6.15,14.340192369490321,-11.415857177641918,153.08060265766466
6.175,16.257112439322434,-9.81774472017557,153.30251880478022
6.2,18.486674239155093,-8.212406748650103,153.47450355460586
6.225,21.02688492823176,-6.705754313438669,153.59425002267443
6.25,23.49348503230928,-5.255682968683171,153.69139299020563
6.275,25.564990496237183,-3.9445030128632443,153.76196776053843
6.3,27.214863691565167,-3.003356540283226,153.7565365160075
6.325,28.470524540534598,-2.421923430417462,153.63151527916537
6.35,29.324859219468728,-1.9095410839364562,153.43292156532874
6.375,30.024036105126264,-1.4245976103557705,153.19721325461788
6.4,30.679524092961614,-1.0684460309770023,152.90555632829341
6.425,31.18345197836817,-0.8585198583064361,152.54054003218278
6.45,31.490724784707233,-0.7717484080598005,152.1057158216279
6.475,31.56228238145406,-0.5708664695266129,151.63553810875143
6.5,31.385603526418667,0.048809591139631806,151.18089180894117
6.525,30.97361174718191,0.9608464577575004,150.75657815920056
6.55,30.208836353095155,1.8264217315519473,150.3440706587124
6.575,28.88833350631665,2.438893578219497,149.91464369176012
6.6,27.03347444312877,2.772228155008535,149.45617930413414
6.625,24.87550189697887,2.92596358106107,148.96784858544888
6.65,22.685399817257796,3.0608400181613025,148.43872105657155
6.675,20.817557450609204,3.3011050422802692,147.88938184749338
6.7,19.558336305573807,3.6508246022715527,147.3815714023346
6.725,19.013160196696397,4.029281214756074,146.9647844129035
6.75,19.169294052428107,4.384968255582509,146.6690388050393
6.775,19.994682532701184,4.705430560614292,146.54226290319224
6.8,21.44836067077227,4.960917129394185,146.66698652656734
6.825,23.387331352803336,5.1200556717269565,147.12514839446786
6.85,25.599432387869474,5.26408214753953,147.94786845308872
6.875,27.981957107062552,5.580285787702536,149.10273432003223
6.9,30.565579109377012,6.027916673787217,150.47916354548255
6.925,33.17728181164183,6.154892948756626,151.92290372207242
6.95,35.29002706158445,5.533182037155678,153.36634003469712
6.975,36.68813720911494,4.3693626550435,154.81769914485164
7.0,37.52142807452661,3.040940624056307,156.14787238405822
7.025,37.909922397215766,1.9971502407518447,157.1836496823084
7.05,37.88720959600851,1.709011989765069,157.87482922412732
7.075,37.377232568836256,2.00078305614329,158.1890348935835
7.1,36.37897658696985,2.384295019816973,158.05250700318206
7.125,35.16673846351588,2.6101802163554186,157.45407221018345
7.15,33.7152975185108,2.4377169590057632,156.50818581035549
7.175,31.86306558623238,1.8027533939969997,155.41593766695755
7.2,29.532507459920595,0.8397176324837369,154.4230629605753
7.225,26.934229414505452,-0.2311493984699183,153.74112274265872
7.25,24.622120169360983,-1.3696391473328147,153.4465522427029
7.275,23.210937352401455,-2.812474888408984,153.53274205602347
7.3,23.245927637463854,-4.969199994392968,154.0170533174425
7.325,25.30604880229711,-8.205992522329375,154.93206030574794
7.35,29.883402208703302,-12.489538569406223,156.29192793010304
7.375,37.000270602348,-17.346987567454754,158.06573591972747
7.4,45.851419488691235,-21.906630573188174,160.17846913565455
7.425,55.5970275928067,-25.45856675760613,162.5424010985067
7.45,66.23441763998076,-28.336243459976412,165.12465749166145
7.475,78.83435410175798,-31.155532156266105,168.05129388424876
7.5,97.94616553852681,-34.45781771120075,171.51613252918742
7.525,130.41431294718174,-42.575935582489564,175.50421241082302
7.55,177.6649352888639,-153.9953355762443,179.7974764076274
7.575,-134.99496923576055,6.062297300751686,-175.6814070424424
7.6,-101.0024535662857,-0.4835828237029448,-170.86709247361168
7.625,-79.26352124260787,0.6250640996360042,-165.83179389072316
7.65,-64.53108669358252,1.8070614554206106,-160.70226030984605
7.675,-52.94012830899376,1.7703825127722195,-155.47397771700489
7.7,-42.970235176118926,0.30104081723775555,-150.06626726946828
7.725,-34.91471389615793,-2.4515812600398044,-144.39489340759468
7.75,-29.18086648689324,-6.029347552048709,-138.37894131911938
7.775,-25.382664487268336,-9.604905219233085,-131.9443906336973
7.8,-22.860100249315828,-12.59170164415975,-125.08281450195265
7.825,-21.092318821584637,-14.768776981256112,-117.8134740809734
7.85,-19.80944868449876,-16.15624002311912,-110.0487518194423
7.875,-18.987090734487644,-16.765484974791903,-101.68459944925812
