Time [s],Flexion(-)/extension(+),Abduction(+)/adduction(-),Internal(-)/external(+) rotation
0.0,-1.9818891767704907,-1.9008139019499388,-9.100989278419926
0.025,-1.9483293728855786,-1.9199083249676545,-9.120247887937198
0.05,-1.9116907329983233,-1.9401487019651098,-9.160348477891857
0.075,-1.8931356826402965,-1.9538562568124098,-9.21427627370888
0.1,-1.8928803831168841,-1.9687243595330568,-9.249682658011874
0.125,-1.8875259539946498,-1.9881620590454618,-9.25992701787113
0.15,-1.8697943654105351,-2.010379299135333,-9.24615363906835
0.175,-1.8465485364913132,-2.0385447722526484,-9.214837491365499
0.2,-1.8200794136099507,-2.07647192075396,-9.20252079579858
0.225,-1.7989586303429366,-2.1137877980868938,-9.208823441838785
0.25,-1.783662833140395,-2.135230853533763,-9.220150302204361
0.275,-1.762199992889176,-2.1345907864395777,-9.224731037456364
0.3,-1.7219026812289493,-2.1223043553454817,-9.207955933365843
0.325,-1.6834859448853496,-2.1267792606273295,-9.168539258066334
0.35,-1.6586091149712388,-2.1592513298695843,-9.11206304125806
0.375,-1.649590426709572,-2.192503010123159,-9.04853435510066
0.4,-1.6729010959767407,-2.2003891394476374,-8.989545208079189
0.425,-1.712975126350538,-2.186303800029943,-8.940181075161064
0.45,-1.748954008008125,-2.1472603132982937,-8.90074630589105
0.475,-1.7752030953321591,-2.083915005673925,-8.837580096049523
0.5,-1.7845984505707584,-2.014713032001848,-8.71416219053491
0.525,-1.7981543156768558,-1.964395258774032,-8.543482560390197
0.55,-1.8520123414333756,-1.9154664265764458,-8.362212494518852
0.575,-1.9561728217983099,-1.852545334463717,-8.20568599507761
0.6,-2.1198956871853634,-1.805704993768758,-8.093647679278972
0.625,-2.3491887398402986,-1.818321191145351,-8.016127500491946
0.65,-2.621189036278404,-1.9004236128802292,-7.945195160117144
0.675,-2.8967687304363903,-2.008003061001587,-7.844991325262768
0.7,-3.1490253824244836,-2.1003074764315586,-7.722983716322173
0.725,-3.35554112757726,-2.169323465226663,-7.6009295527792355
0.75,-3.5008729290445437,-2.2151175500085767,-7.518581922367007
0.775,-3.6040061372873406,-2.2598085665929273,-7.512675389093304
0.8,-3.6891225013502154,-2.312571031896359,-7.577188044803106
0.825,-3.771401184001754,-2.345636196819491,-7.701593887598159
0.85,-3.834890528352976,-2.337508463495227,-7.853005615146988
0.875,-3.8378296421603966,-2.3038926904429715,-7.993680899473027
0.9,-3.7770920765376723,-2.3089904348735537,-8.112330974232252
0.925,-3.6921354713112366,-2.433636996731933,-8.189533776677536
0.95,-3.659815300791085,-2.689011384569134,-8.23144265271047
0.975,-3.7901931984968282,-3.035771492895243,-8.247121074750712
1.0,-4.145682188076858,-3.443077653961079,-8.185819912027085
1.025,-4.688756879169212,-3.8711696686038897,-7.947119427126247
1.05,-5.326094812610701,-4.300435242740342,-7.436896652630772
1.075,-5.979141046135905,-4.765118524503935,-6.639032038805419
1.1,-6.603547660926745,-5.336081794925629,-5.682454485327271
1.125,-7.230202392729608,-6.074412715836363,-4.796795919848174
1.15,-7.885651034203027,-6.981083237193651,-4.192097467763978
1.175,-8.521711699693839,-8.001805730397518,-3.9516700852654902
1.2,-9.109913510701544,-9.086535923856331,-4.019645446240897
1.225,-9.673329797600507,-10.202065006571,-4.3227819563248815
1.25,-10.246900649627216,-11.325804068170946,-4.8056144110313825
1.275,-10.836643625008623,-12.400785458109047,-5.393655384361335
1.3,-11.424762131164785,-13.338239695476556,-5.997270657259711
1.325,-11.991557414560388,-14.083491301972584,-6.546936491859676
1.35,-12.493723418920746,-14.63475775558726,-6.962605194146756
1.375,-12.846407384691469,-15.072270195923181,-7.119556946608237
1.4,-12.994659870624286,-15.521497975637065,-6.924398307004074
1.425,-12.985804204666573,-16.03065213940895,-6.377438281469396
1.45,-12.8813899534772,-16.579314871488602,-5.4406466418977875
1.475,-12.702129749882225,-17.12282778618721,-4.016024488472787
1.5,-12.495289533705577,-17.592141778364088,-2.109402408503111
1.525,-12.393425151367788,-17.957383139851796,0.0939824573211348
1.55,-12.52736146801497,-18.288902152629333,2.3924455585532542
1.575,-12.904255933956257,-18.71119104409566,4.711345395131945
1.6,-13.491663157169821,-19.272284995540986,7.027410185413193
1.625,-14.234640512306337,-19.889640097584547,9.326756725156725
1.65,-15.043250300934362,-20.318003711363264,11.458280590599546
1.675,-15.82259278980372,-20.30466409517258,13.161198524306535
1.7,-16.484182857934833,-19.84146081444151,14.252387802532223
1.725,-16.957654336717003,-19.104423874525356,14.647469370287949
1.75,-17.17730535279825,-18.23845209477426,14.290375143840485
1.775,-17.081758811943505,-17.318422772595376,13.148332922867695
1.8,-16.646753968845214,-16.442060787436247,11.266311923381714
1.825,-15.922178990427703,-15.717021852549767,8.768849573836734
1.85,-15.04784055177818,-15.234765042714654,5.879631755901294
1.875,-14.2604397513641,-15.109038873272617,2.9552891229893845
1.9,-13.828474483734812,-15.392796639564901,0.2811001256203189
1.925,-13.961659934942517,-16.038546884329055,-2.0671885908264156
1.95,-14.614381721482223,-16.87361926261035,-4.014054240508196
1.975,-15.45193423310102,-17.708572511270717,-5.340689531891192
2.0,-16.11871249546971,-18.4422969694225,-5.873625044992027
2.025,-16.604829596167463,-18.989210818717503,-5.801336788315208
2.05,-17.07421676835702,-19.3069002676985,-5.5543775040541705
2.075,-17.52610870129934,-19.557406315496845,-5.378876598889233
2.1,-17.869064491173823,-19.977060836039563,-5.303704638943058
2.125,-18.1121282839681,-20.636735307929918,-5.282801350436601
2.15,-18.299331195403376,-21.448449890176093,-5.285556459967521
2.175,-18.420846769725035,-22.345329781982688,-5.251256114103352
2.2,-18.45275067850454,-23.27361878708404,-4.963763521457443
2.225,-18.259953610123805,-23.99607306792034,-4.129418571525687
2.25,-17.569945924504996,-24.1426841292797,-2.6109132601865768
2.275,-16.18692978799354,-23.547105898781414,-0.5753839191013258
2.3,-14.170299064160558,-22.35950661523717,1.6415587261285622
2.325,-11.73622459942882,-20.802051717927853,3.768020670964897
2.35,-9.130742931592977,-19.033846497111757,5.606919350555342
2.375,-6.5180081008581,-17.088608987561223,6.859270364769871
2.4,-4.125276611939706,-14.996627986688713,7.1782977522428935
2.425,-2.1849990400073898,-12.935259604485381,6.383529993468607
2.45,-1.0915068287195442,-11.050354675283405,4.230979989211471
2.475,-1.0822548176332305,-9.29094209634192,0.40868041135277094
2.5,-1.800798361351662,-7.70478252373244,-4.828275215179522
2.525,-2.6033024963189764,-6.49451788250642,-10.270452465429335
2.55,-3.1444978832497794,-5.625896902696615,-14.195200846676714
2.575,-3.2467150946857557,-5.02742978354974,-15.617686771478816
2.6,-2.799366520884267,-4.933663163630802,-14.922167928468618
2.625,-2.0423244545395147,-5.416916339032396,-13.250952654095371
2.65,-1.3580631253697162,-6.261339243115794,-11.671619753158335
2.675,-0.8498703104576797,-7.28767453081835,-10.776103291656593
2.7,-0.5097057270491848,-8.487316415665472,-10.746539813824073
2.725,-0.40477156358197214,-9.866776317422175,-11.414445045972068
2.75,-0.6437913713154422,-11.162716019310448,-12.31104279787395
2.775,-1.3084671120408098,-11.809762217824375,-12.969489606840837
2.8,-2.2237563270953635,-11.438446144478602,-13.26267328530653
2.825,-2.950529864749151,-10.352619256054286,-13.454310537742163
2.85,-3.247795622250857,-9.249190791989372,-13.80848979467718
2.875,-3.154433120775626,-8.57241448771066,-14.321482715616384
2.9,-2.750571848735109,-8.481270990847504,-14.887045188438254
2.925,-2.1466658157103033,-8.882291107985644,-15.469300918753492
2.95,-1.3822976121081716,-9.456848852938784,-16.04867092849393
2.975,-0.5671984497829142,-9.941453438075692,-16.659244588641435
3.0,0.12456969335210298,-10.22258357817951,-17.5381702787808
3.025,0.6049184773251013,-10.160981170092182,-18.783966701588128
3.05,0.9616306224016001,-9.603763013418284,-20.063602401023218
3.075,1.3306078822417773,-8.66692555713513,-20.86160404309714
3.1,1.7851721750847853,-7.664950010116753,-20.866833310502038
3.125,2.2990484574291883,-6.8135038669472925,-20.083118398185228
3.15,2.690077540001515,-6.107554398236093,-18.67967556495196
3.175,2.72574682948138,-5.503043692390799,-17.002050789185116
3.2,2.3182519226497402,-5.033341099810845,-15.329202061003093
3.225,1.6652642741167156,-4.628175040121078,-13.785245590287563
3.25,1.0479012271273402,-4.158567996952145,-12.408503144954645
3.275,0.5933893644279714,-3.7020296604003207,-11.154327908932533
3.3,0.2791987936342126,-3.5582043220480055,-9.973992045622042
3.325,0.021322285971337552,-3.8548948497207953,-9.066283769114046
3.35,-0.23532054791876092,-4.558335590445239,-8.790051945888006
3.375,-0.5556342717433987,-5.663100523165616,-9.406228731651023
3.4,-0.9449305860230125,-7.066809109406111,-10.839175866631797
3.425,-1.2757566309139734,-8.521846079708082,-12.61059990544651
3.45,-1.3859378553299682,-9.860674523603219,-14.048069248881468
3.475,-1.2450431591395839,-11.021890677737732,-14.843790515720247
3.5,-0.941330434230718,-12.00058708181268,-15.060659629891068
3.525,-0.6872998642811089,-12.828182614708691,-14.921464317694737
3.55,-0.7013454689265922,-13.502347106073104,-14.784058526536864
3.575,-1.0289861894771004,-13.939698724859728,-15.017666783814883
3.6,-1.6266938449531962,-14.197660413510933,-15.676148531541088
3.625,-2.4920627304792795,-14.442516207576737,-16.478651080634304
3.65,-3.720799858717751,-14.631298622940731,-17.052593880124117
3.675,-5.2749301293686255,-14.560409486439239,-16.87340701389834
3.7,-6.763275598442575,-14.250275389224921,-15.332720038322842
3.725,-7.69463817868912,-13.878339103452502,-12.367269082591221
3.75,-7.885561782715477,-13.720626458015685,-8.482276794074732
3.775,-7.358867663621773,-14.015263553066228,-5.117744830617707
3.8,-6.240453961920922,-14.611439104235858,-4.738282797909856
3.825,-4.925316010101335,-15.411956490055541,-7.275851077693118
3.85,-2.989766386961016,-16.508630844539603,-10.534590103452391
3.875,0.1489221755141816,-17.85520891317839,-12.531959379937218
3.9,4.023690259903337,-19.172257897282435,-12.680099158681081
3.925,7.336424520523427,-20.276566479967837,-11.461542162805465
3.95,9.211809988891385,-21.218327562682127,-9.940050636381999
3.975,9.715222629068206,-22.2961086564072,-9.234732027926057
4.0,8.869599626247497,-24.186092633568222,-10.321676099181857
4.025,6.361732874276403,-27.414100025801634,-13.363159723510542
4.05,2.196142347297715,-31.83228989084905,-17.04119629977358
4.075,-3.071502234690264,-36.68002088856001,-19.297467111926313
4.1,-9.064411829864905,-40.921165500584934,-19.572561986688303
4.125,-15.528723528917636,-43.797651953702896,-19.02502093459422
4.15,-21.812459810447905,-45.207127590946186,-18.734048940069883
4.175,-27.00087606991911,-45.67275276043201,-18.312370633290378
4.2,-30.112712628244918,-45.799510431207196,-16.898615433573376
4.225,-30.969392314492687,-45.53792626070877,-14.6849377979441
4.25,-30.7330081183425,-44.378385344609406,-12.599639463856667
4.275,-30.42226867739079,-41.79338870096655,-11.050744128656225
4.3,-30.602379395804856,-37.66739072174721,-10.547703873299062
4.325,-31.49087009879777,-32.51558200278504,-11.645527914852892
4.35,-32.69451845419818,-26.978607940147825,-14.34379608617622
4.375,-34.02411879566423,-21.501535977046796,-18.251437509567026
4.4,-35.58018045785476,-16.4580635269784,-22.337865859420102
4.425,-36.95470731658452,-12.061455632373583,-24.546751423248523
4.45,-37.13604949922656,-8.126993395427464,-23.799538446533848
4.475,-35.839535414361094,-4.220473314071932,-21.192030064410858
4.5,-33.855732754529534,-0.43290624596491784,-17.930607394430442
4.525,-31.66003665212307,2.245319831900826,-14.626915318595863
4.55,-29.915188606749826,3.4100404307388685,-11.354641344133162
4.575,-29.475698404390343,3.2989347981926076,-7.631240150445293
4.6,-29.968016877152877,2.232974286971539,-3.484794730316705
4.625,-30.236796146478486,0.5481260504296697,0.6892297095213611
4.65,-29.774445954993354,-1.3772561355497026,4.681678122489184
4.675,-29.063389020264353,-3.3712459554536016,8.211897923875792
4.7,-28.566246668978938,-5.299567736234701,10.74117774291367
4.725,-28.310334173226995,-7.130124920188494,11.961477271085077
4.75,-28.157855346150225,-9.126069533756075,12.539930669915686
4.775,-27.908030191652777,-11.302434610241715,13.248055297341814
4.8,-27.260386531911937,-13.467769494674398,14.360273207493403
4.825,-26.069687440396127,-15.767036241354928,15.963572473123843
4.85,-24.36052741614738,-18.212320040602457,17.893899735474
4.875,-22.248672430568394,-20.36591278892795,19.582682421208947
4.9,-20.031707492256192,-21.691702691516838,20.16255689410282
4.925,-17.8996056968536,-21.902375667720573,18.99062766738337
4.95,-15.890939464581521,-20.879055191585234,15.845411562921454
4.975,-14.255520345992093,-18.625762760479812,10.847154788176221
5.0,-13.305937877084475,-15.508598973300423,4.272814600168476
5.025,-13.065509038823135,-12.238711949735697,-3.726109161123619
5.05,-13.232763087708875,-9.375884260498381,-12.372264615132293
5.075,-13.175036565947446,-7.48542310454722,-19.381883378519916
5.1,-12.350645143381566,-6.971760218545348,-22.657551486299262
5.125,-11.04861042156222,-7.751426002783235,-22.03177276551926
5.15,-9.678188653338703,-9.305290312001116,-19.061889581675295
5.175,-8.233557519253127,-11.50754767383955,-15.76946479997884
5.2,-7.361795097430347,-14.310586015361482,-14.308137075369608
5.225,-7.866864538056932,-17.183120563226563,-15.997130266400312
5.25,-9.380193923731744,-19.44799840672621,-20.102021890123083
5.275,-10.621776404299226,-21.030577243981572,-24.150593110261003
5.3,-10.778405031689626,-22.056795991225414,-26.477218021470023
5.325,-9.778972128964408,-22.47879629880863,-27.042612472497915
5.35,-8.35107468684261,-22.35379637227401,-26.38731161201522
5.375,-7.385989062246509,-21.999824738560203,-25.202497270405768
5.4,-7.353292083278926,-22.040429252605552,-24.03437733507121
5.425,-7.7716888672619255,-22.920098504997355,-23.378190206957033
5.45,-8.32557687303473,-24.68319260416484,-23.637618744060745
5.475,-10.148299200573302,-26.897387533246135,-25.08907433966802
5.5,-14.932879119256807,-28.53049200772071,-28.641966784132055
5.525,-22.107718017980627,-28.578619685720753,-34.95036831521474
5.55,-27.98503004728061,-27.052093610729873,-41.78615576739022
5.575,-30.01786295968686,-24.55262932635015,-45.11169704722311
5.6,-28.40255211243667,-21.762582572185696,-43.42708559841321
5.625,-24.350496776044167,-19.6004207515319,-38.68538519047124
5.65,-20.328987674876355,-17.87579217307756,-34.83409932430455
5.675,-18.242498191340985,-16.303958177786626,-34.71940091553374
5.7,-17.66117114010265,-14.931982931516524,-37.29949553716625
5.725,-17.19946602406808,-13.633198361843608,-39.506820311738636
5.75,-16.196367681899474,-12.433748597116379,-39.900959274120304
5.775,-14.704794628157327,-11.716302268482579,-39.19869504475759
5.8,-13.202739276178965,-11.652752448438246,-38.52006984403697
5.825,-12.146898636157534,-11.956947688455081,-38.29026948214381
5.85,-11.585010084513877,-12.401309239362622,-38.393881755848525
5.875,-11.430225111181302,-13.209367765358461,-38.564500819589156
5.9,-11.977482717757562,-14.557625946482695,-38.90024254154723
5.925,-13.40457967836351,-16.26989042238222,-39.73231538183662
5.95,-15.48971132713182,-18.236776765687914,-40.94530613967224
5.975,-18.030892924288555,-20.520568013844773,-42.00108570556552
6.0,-20.780645924890916,-23.10457035428708,-42.746167563204565
6.025,-23.56548864554088,-25.768705763106627,-43.48672156211544
6.05,-26.388366830553267,-28.394519563849123,-44.441241120212034
6.075,-29.192154788610733,-30.936024983934303,-45.429789548768014
6.1,-31.8179692059556,-33.30007329053013,-46.12330572349078
6.125,-34.185621779606066,-35.35090958607955,-46.29677891611476
6.15,-36.419968341124154,-37.015300677243104,-45.9020292659751
6.175,-38.605304915567075,-38.30992902357377,-44.98555560125978
6.2,-40.92773419017741,-39.2828199828407,-43.72258693096452
6.225,-43.654115644019605,-40.13971693683542,-42.40335072907338
6.25,-46.98891962784646,-41.09560925983862,-41.472810334647626
6.275,-51.07072051618971,-42.06905784284363,-41.41249057582585
6.3,-55.75989750890194,-42.93788178191712,-42.31618256996552
6.325,-60.58710315442775,-43.65183708382224,-43.67091430002603
6.35,-65.120831874495,-44.11197631397564,-44.635432690620796
6.375,-68.89372725708986,-44.08772276335349,-44.318480270296355
6.4,-71.64307659910799,-43.459160729701495,-42.16010948121751
6.425,-73.87983354437714,-42.55410890552823,-38.51343390023715
6.45,-76.28341926301906,-41.79350654890891,-34.22301258488568
6.475,-79.01404187215446,-41.39663193137303,-30.15728469612874
6.5,-81.63155275831686,-41.21065955669664,-26.813044255092123
6.525,-83.39365120212727,-40.923356109290914,-23.8959139558917
6.55,-83.7612718043995,-40.39450663553933,-20.567310720414397
6.575,-82.87656187134468,-39.86007356793193,-16.25031328812924
6.6,-81.16696135856833,-40.053843651493224,-10.581176567247907
6.625,-79.15845741200765,-41.5711940060057,-3.7897439359843665
6.65,-77.39856390597791,-44.24270954252291,3.1962007330990447
6.675,-76.18757199752983,-47.19614320453337,9.673146720144254
6.7,-75.57223615524661,-49.79110192297204,15.47162233887353
6.725,-75.41063376341793,-51.92117648815341,20.76259246573674
6.75,-75.35571821170045,-53.79357387202748,26.047976506221694
6.775,-75.20656023454117,-55.530116147069336,31.637157145835936
6.8,-74.61810496612055,-56.70751785615258,37.21120874517667
6.825,-72.45766639096335,-56.825735703285005,42.24552987397364
6.85,-68.45378788066114,-56.082699340504476,46.18901595181195
6.875,-63.940378865959765,-54.51877970095408,47.78739559664165
6.9,-60.464381643493994,-52.25842230401213,46.14555075496365
6.925,-58.759752041070705,-49.7573432816042,42.18103868972882
6.95,-58.70109400183934,-47.27564629526051,37.96624565133876
6.975,-59.90523766484479,-44.991698748935384,35.383987143443356
7.0,-61.397280142261245,-42.94241344974195,35.06492404896428
7.025,-62.3748807779447,-41.05848944506173,35.86250465228406
7.05,-63.23832595398901,-39.698316478693854,36.56032244083803
7.075,-64.41464893476495,-39.41573086438928,37.238428333981126
7.1,-65.25419074278923,-39.96925975701294,38.467534726339224
7.125,-65.00119773484518,-40.48024108639186,40.14826902715569
7.15,-63.896197964567094,-40.673872334279004,41.66667991709187
7.175,-62.60471468149642,-41.01824315887988,42.608968225278005
7.2,-61.09102547925124,-41.92439933920836,42.777065336548354
7.225,-59.28365438321615,-43.713214581504396,41.878929575826085
7.25,-57.25774560493565,-46.50120850688017,39.6234602251192
7.275,-54.924413047189276,-49.965415844407985,35.935629726915145
7.3,-52.208466368411955,-53.42135323547403,30.669401935123194
7.325,-48.57676415559329,-55.85522571020787,23.635531891934683
7.35,-43.87699988263533,-56.599312368490985,14.773081051345786
7.375,-38.77481135132121,-55.995809394358254,4.482608796665885
7.4,-34.572167496951394,-54.95913827312255,-6.691363763251291
7.425,-32.03569436878047,-53.846852314696626,-17.697293271751704
7.45,-30.871545216625126,-52.45513547642209,-27.57357263740529
7.475,-30.362213959966226,-50.59722891180559,-36.30337145187404
7.5,-30.20232190625862,-48.21966908930057,-43.63363370789936
7.525,-30.003046933661935,-45.31523334598045,-48.72461565613306
7.55,-29.57661792504856,-42.00001644907995,-51.42489871373765
7.575,-29.234321228727694,-38.262310514268385,-52.018943947499885
7.6,-29.377706772936566,-34.06849580509203,-50.75535355965377
7.625,-30.125326985365746,-29.779149987700322,-48.15937006145086
7.65,-31.2093103355063,-26.106968651972828,-44.95573430000126
7.675,-32.4148012871123,-23.594731903005258,-42.044929714045715
7.7,-33.77905281795467,-21.643442746604116,-39.86989554988263
