Time [s],Flexion(-)/extension(+),Supination(+)/pronation(-)
0.0,-5.734687107684013,-3.6796628233063022
0.025,-5.708270529242216,-3.7157951233831668
0.05,-5.670346420077922,-3.7617409416964724
0.075,-5.632145818592503,-3.7859127349375448
0.1,-5.602747934880897,-3.7552526281133365
0.125,-5.589698410784551,-3.670928369619273
0.15,-5.593940631761069,-3.5854610082299794
0.175,-5.607370462916201,-3.5491142912917266
0.2,-5.622758266213247,-3.5698303518370427
0.225,-5.636953685852,-3.6352329882443244
0.25,-5.643716136498169,-3.7355252782128803
0.275,-5.633867777596773,-3.8610218659938362
0.3,-5.602634731755897,-3.9642800769985804
0.325,-5.547880179555451,-4.003536766003324
0.35,-5.467725744634622,-3.9932601131780308
0.375,-5.366688069958572,-3.96815428894289
0.4,-5.257124833220573,-3.9470724002137523
0.425,-5.148637520562553,-3.938485255143527
0.45,-5.044660127922221,-3.9339025627477144
0.475,-4.943482427866509,-3.932473597369353
0.5,-4.842225938972372,-3.946212324215364
0.525,-4.74349728923937,-3.983084621542954
0.55,-4.651267018474516,-4.023899739675562
0.575,-4.563553443381948,-4.035986278166127
0.6,-4.473148118197318,-4.015009253491041
0.625,-4.378555759814463,-3.9922399797186854
0.65,-4.2845208708213365,-3.982236505542231
0.675,-4.191489751410055,-4.006702906116186
0.7,-4.103131647413195,-4.061556447924211
0.725,-4.027537198689871,-4.122446543428859
0.75,-3.964753953900194,-4.176587844464315
0.775,-3.916457658571553,-4.221188202745555
0.8,-3.877178179477524,-4.269616691073975
0.825,-3.8205055238841923,-4.3204433855325535
0.85,-3.7335833750928265,-4.373112803259255
0.875,-3.6462236250242372,-4.438106727800543
0.9,-3.564751382120415,-4.517233368983976
0.925,-3.486069472777498,-4.619771700843058
0.95,-3.4120952138624703,-4.754422222572458
0.975,-3.3416328982871475,-4.897128172673535
1.0,-3.270254066948088,-5.018013324802329
1.025,-3.1932890426725553,-5.11724445271733
1.05,-3.110704706193835,-5.20703591289727
1.075,-3.029728016003993,-5.281694847512668
1.1,-2.9576202706771815,-5.3448097871485665
1.125,-2.8891943591004297,-5.413473130595511
1.15,-2.817982737681461,-5.475704581294604
1.175,-2.7522024642047866,-5.513094378234654
1.2,-2.7041571799554713,-5.519600518763321
1.225,-2.6759413889141106,-5.5017213276111905
1.25,-2.6581426647441613,-5.499823300806359
1.275,-2.632773276489716,-5.552231414154933
1.3,-2.583702853004594,-5.665318827776685
1.325,-2.512372381011345,-5.8182997669085
1.35,-2.4374949478950336,-5.9841427317163784
1.375,-2.3800656299691094,-6.147431012312835
1.4,-2.352562198755477,-6.290313262815627
1.425,-2.3553164645778883,-6.387263705922977
1.45,-2.385901365644334,-6.442295467937255
1.475,-2.441180944629761,-6.481518727740983
1.5,-2.5101486312457593,-6.494566641419843
1.525,-2.5785597560067273,-6.460447895248009
1.55,-2.636910717119942,-6.393060982575584
1.575,-2.6799034258368306,-6.306726351199491
1.6,-2.704564801394582,-6.213381719557031
1.625,-2.7131822037672593,-6.124882400686736
1.65,-2.704941167655441,-6.03903018618922
1.675,-2.6789118264620746,-5.956287310527769
1.7,-2.6440574612406897,-5.887502414905715
1.725,-2.6156979351853984,-5.839396959366042
1.75,-2.5976273151902975,-5.816947372816579
1.775,-2.591334678893942,-5.816933581096493
1.8,-2.6051393058534913,-5.801213389609922
1.825,-2.6168688253230648,-5.7418127796136105
1.85,-2.6009020396353746,-5.658465164858686
1.875,-2.5428376099419006,-5.591903603766474
1.9,-2.452109386280729,-5.610108810957393
1.925,-2.370349139331266,-5.69452324455463
1.95,-2.31383143815068,-5.755556574178448
1.975,-2.2765811459792316,-5.748712846396486
2.0,-2.2459106979561265,-5.682793415667976
2.025,-2.2205222432068505,-5.581298347486421
2.05,-2.2096162705881874,-5.47168871197931
2.075,-2.2193129157406783,-5.370388550763714
2.1,-2.2473048557132707,-5.2771148201116524
2.125,-2.2863851249459977,-5.2156364775985145
2.15,-2.3330018039016323,-5.2219053932668
2.175,-2.3884273323244325,-5.291579591237029
2.2,-2.453962594773368,-5.378005233384196
2.225,-2.525304110365842,-5.436923230434608
2.25,-2.586040999122401,-5.467730634770893
2.275,-2.6226544489572414,-5.491118319160294
2.3,-2.6338357108069568,-5.513287770475
2.325,-2.6259475885065995,-5.516567523821115
2.35,-2.6042434072993537,-5.489625105252025
2.375,-2.57414229143611,-5.436545206843845
2.4,-2.5370934052489376,-5.3651590463720416
2.425,-2.49021958546239,-5.276289867396074
2.45,-2.4304227214550744,-5.166773801002428
2.475,-2.359215755419352,-5.034682754116282
2.5,-2.2809006074496265,-4.907721996395689
2.525,-2.202376422161766,-4.817288027177599
2.55,-2.135138357808156,-4.759322307402001
2.575,-2.0874311492594617,-4.710025876560394
2.6,-2.06031384420989,-4.665318229561545
2.625,-2.047287938813945,-4.635767536474174
2.65,-2.032922594472402,-4.621443847323566
2.675,-2.005142239623908,-4.610142595856284
2.7,-1.9675614941706856,-4.594242423106919
2.725,-1.9363130832625381,-4.576079479936277
2.75,-1.9178243204826602,-4.563451358359799
2.775,-1.9079078583700981,-4.5658987302926555
2.8,-1.9088116126398982,-4.578783021156098
2.825,-1.9262733342787708,-4.5951865298696255
2.85,-1.9621626317111989,-4.61091480237929
2.875,-2.0105696712366568,-4.631569673749806
2.9,-2.0558758394613,-4.646958261195727
2.925,-2.0753622124191873,-4.622343143380355
2.95,-2.047423330936881,-4.552108255268165
2.975,-1.9696876420355622,-4.493253013984199
3.0,-1.8646649151982058,-4.50041843968923
3.025,-1.7560902617283314,-4.567829959929021
3.05,-1.6586165001326323,-4.661478147889584
3.075,-1.582132148937863,-4.748174628884752
3.1,-1.5330614386023698,-4.809141980694866
3.125,-1.5105583803029274,-4.852895841296612
3.15,-1.5063704086437275,-4.904694206140413
3.175,-1.5148340011674228,-4.977679586266542
3.2,-1.5358387923222763,-5.060255644756674
3.225,-1.5709373896025687,-5.134168641058061
3.25,-1.62003207450675,-5.206392759878949
3.275,-1.6808980339026973,-5.292550409742426
3.3,-1.7475824022177884,-5.39081625813218
3.325,-1.8159571247980797,-5.484548074177048
3.35,-1.8876003933624366,-5.5579877230280825
3.375,-1.967638916173388,-5.596069384759991
3.4,-2.0544187188563354,-5.591778117452508
3.425,-2.1357756484514674,-5.555409412475904
3.45,-2.2021493784808417,-5.493498167565478
3.475,-2.2505121567574706,-5.395470949126282
3.5,-2.2715875271023647,-5.260233537879041
3.525,-2.2382061608431707,-5.118617253995208
3.55,-2.125729853530495,-5.026244548925168
3.575,-1.9482608153258965,-5.010941574759957
3.6,-1.7568548498790568,-5.041403109940986
3.625,-1.6009782393238572,-5.078720590257027
3.65,-1.4940671040794298,-5.111034665038027
3.675,-1.4146839461577574,-5.1381140075544165
3.7,-1.3462848769830025,-5.138109149281681
3.725,-1.2844980934222945,-5.072227763921158
3.75,-1.234885724510704,-4.943046168355282
3.775,-1.2036486733339784,-4.78892578443632
3.8,-1.1922057127046117,-4.633292798795375
3.825,-1.1948973621083687,-4.496248322736989
3.85,-1.2076224196826493,-4.384774156692484
3.875,-1.232705779330487,-4.277014761558557
3.9,-1.275466153617919,-4.16495159267656
3.925,-1.3367585374960351,-4.0475929432381585
3.95,-1.4085662859671884,-3.912942456568028
3.975,-1.4843033501551388,-3.7609458099526423
4.0,-1.565579287440946,-3.588618486967878
4.025,-1.6501411957320926,-3.384850015411972
4.05,-1.7351054994672812,-3.162329399623451
4.075,-1.8216286533510146,-2.954477027868558
4.1,-1.9099442839757044,-2.768491804063142
4.125,-1.999276524959031,-2.587877640635929
4.15,-2.0914111151070456,-2.4122368794068487
4.175,-2.182998057416666,-2.248584557922453
4.2,-2.2624682039100907,-2.0855349258522087
4.225,-2.321034327065785,-1.9154008986991717
4.25,-2.360601047884847,-1.7488685182107533
4.275,-2.386924055479629,-1.5996444708074757
4.3,-2.4014248459601757,-1.4755982080934098
4.325,-2.396581766058505,-1.377231968550051
4.35,-2.3647791049436604,-1.2988439311508349
4.375,-2.3075363692288144,-1.249803700389356
4.4,-2.2301546994762624,-1.252505617337507
4.425,-2.145596433864776,-1.3066370478442486
4.45,-2.079294534150016,-1.38812457516149
4.475,-2.0509587333982067,-1.495565536949039
4.5,-2.065190152632674,-1.6319786564470617
4.525,-2.1074054794155814,-1.7758110548248585
4.55,-2.1587789706568503,-1.912749927429993
4.575,-2.209893653398132,-2.0388814951806404
4.6,-2.257581574172903,-2.1527930787802356
4.625,-2.297391579605437,-2.262513082512817
4.65,-2.3275111398616537,-2.380169645689642
4.675,-2.3555713165738696,-2.511137920783844
4.7,-2.3865732310391614,-2.6620845036399006
4.725,-2.4093030812059717,-2.8518077810295317
4.75,-2.413403307519162,-3.0764178208802786
4.775,-2.404629816751172,-3.315535514054572
4.8,-2.393693239395207,-3.56395399294291
4.825,-2.3847169978849867,-3.8079280418230708
4.85,-2.3731727892415573,-4.020685683434262
4.875,-2.348842562862932,-4.2003537611951804
4.9,-2.3086051911247876,-4.367590345287297
4.925,-2.2588970767870817,-4.533028645513799
4.95,-2.202929656013941,-4.694048386369057
4.975,-2.136328112309687,-4.838111162539582
5.0,-2.057813923157989,-4.943901374593337
5.025,-1.9729992925831075,-5.00187969886491
5.05,-1.8894229190222054,-5.0286010781153685
5.075,-1.811198721120887,-5.041299397661886
5.1,-1.7397494580329191,-5.039025937214336
5.125,-1.6769172239091912,-5.021003552835944
5.15,-1.6254471550527485,-4.994111613666302
5.175,-1.5895741309196874,-4.962097412655822
5.2,-1.5690614481567446,-4.92025431088691
5.225,-1.5587952665560851,-4.872938962137626
5.25,-1.5522022587649327,-4.830302575264435
5.275,-1.5440867135040623,-4.7959505278097945
5.3,-1.5344720599608688,-4.761025487151305
5.325,-1.5249360008969077,-4.71392564768265
5.35,-1.5165117533868722,-4.65217960890455
5.375,-1.5108560048895148,-4.580690295372155
5.4,-1.5131698225453225,-4.504332812799946
5.425,-1.52670369737426,-4.433637649979916
5.45,-1.5488413284540397,-4.374925020884541
5.475,-1.5722949557053119,-4.330799637729891
5.5,-1.582074825796664,-4.305121611073671
5.525,-1.5663129341610884,-4.29391809776763
5.55,-1.530373191918835,-4.28795236583353
5.575,-1.491494210464416,-4.282884481582384
5.6,-1.4614109747503,-4.285521133319191
5.625,-1.440241090574379,-4.294222456273712
5.65,-1.4236720019790328,-4.312072597281787
5.675,-1.4139405927049085,-4.344773698383876
5.7,-1.4141064002223347,-4.399486965026984
5.725,-1.4147712682730627,-4.4903707021505435
5.75,-1.402252613871008,-4.6263600250714525
5.775,-1.374887803058839,-4.797660072658907
5.8,-1.3446568055156374,-4.979661372571716
5.825,-1.3217629537347988,-5.153090792837612
5.85,-1.3091131320888614,-5.313839167414817
5.875,-1.3112861577392356,-5.492734390476469
5.9,-1.3648877405180042,-5.939991066781569
5.925,-1.564307811994733,-7.254595231512434
5.95,-1.949433100039876,-9.894304431001434
5.975,-2.3958370343201016,-13.314052358154802
6.0,-2.8529711230059385,-16.20053139938189
6.025,-3.427251535167905,-17.57188358172216
6.05,-4.256493575715352,-17.602541728745855
6.075,-5.3519727859202195,-17.09576307799985
6.1,-6.5351767315563665,-16.54258428155558
6.125,-7.57338952382708,-15.912808048846022
6.15,-8.332322952222034,-15.188296399139164
6.175,-8.796122987447406,-14.500851968562179
6.2,-9.005179829184014,-13.87130561354922
6.225,-9.011386209997577,-13.254932846703293
6.25,-8.900165758059199,-12.628943438802345
6.275,-8.766512747432008,-11.946626721306595
6.3,-8.669149643446813,-11.135011671018022
6.325,-8.608331776376527,-10.169302164677802
6.35,-8.549280842798106,-9.109013963322704
6.375,-8.46160134294814,-8.050940356761258
6.4,-8.358325316550628,-6.987705879336952
6.425,-8.257558619686115,-5.76140040271607
6.45,-8.146798912800886,-4.25928602661451
6.475,-7.979793927444442,-2.537422762606789
6.5,-7.706959877552188,-0.7802127414586195
6.525,-7.3114725242199485,0.783605849991655
6.55,-6.809534449736392,1.9654810205066033
6.575,-6.243320336153438,2.6750499211298173
6.6,-5.650818274568762,2.9580264626275476
6.625,-5.046691819393723,2.9631417108401097
6.65,-4.457520206754503,2.883604654949571
6.675,-3.9316031974653805,2.92130709611159
6.7,-3.5138200241195667,3.167247734785492
6.725,-3.2369780306086873,3.556831373093487
6.75,-3.1203378216971496,3.9767028534024886
6.775,-3.159445687570066,4.4106615298647975
6.8,-3.317265258738425,4.991118881253339
6.825,-3.5424622694663515,5.780187640822278
6.85,-3.7976296296532466,6.618493978306983
6.875,-4.056274771047639,7.262359118205089
6.9,-4.298576072119167,7.526609751621159
6.925,-4.517456775273231,7.4095376092813
6.95,-4.707853776676892,6.976664046062913
6.975,-4.848333245324948,6.2543740432773856
7.0,-4.9301695999758035,5.224168536456634
7.025,-4.9734225370051774,3.923962364964695
7.05,-5.017277135878673,2.569987967403994
7.075,-5.126792974681533,1.5067628356969442
7.1,-5.382912895194884,1.0454244664934633
7.125,-5.8302492800511665,1.2737130969311208
7.15,-6.4393942822577905,2.016590679795214
7.175,-7.11557148005551,2.9682502297863382
7.2,-7.740806794855178,3.861945267549555
7.225,-8.233111007057829,4.543304751489857
7.25,-8.589383269645976,4.937015207679898
7.275,-8.856015871551733,5.061142759218901
7.3,-9.073688201900621,5.056006402751148
7.325,-9.263995830210266,5.138618684982487
7.35,-9.436009540356594,5.519503920573748
7.375,-9.585159646277106,6.288466098696219
7.4,-9.680124468169724,7.364189286527357
7.425,-9.67169777574367,8.54828737095298
7.45,-9.520829843668587,9.633336915571448
7.475,-9.215606253227131,10.507529101829885
7.5,-8.784133730085376,11.161470902645867
7.525,-8.298413810861966,11.614089129923107
7.55,-7.869675130196004,11.811627041554363
7.575,-7.641957222192597,11.689751071778737
7.6,-7.765043198759568,11.34662247028366
7.625,-8.364292219300996,11.029120876518522
7.65,-9.504492600130941,10.93010027431469
7.675,-11.15950717163413,11.045282375900323
7.7,-13.219820823145735,11.269216693152714
7.725,-15.54776880641875,11.726332292130774
7.75,-18.04847781049465,12.719211594493384
7.775,-20.670418287954174,14.191455627082222
7.8,-23.254330000084053,15.824668608755793
7.825,-25.46337800923889,17.56543420402861
7.85,-27.010441538981933,19.444703464916756
7.875,-27.874567838683422,21.328748548727
7.9,-28.135072615930678,23.152115336930137
7.925,-27.75051414410018,25.006668412240984
7.95,-26.636618382028153,26.987202909779914
7.975,-24.797179267734666,29.1842034998405
8.0,-22.37102360921126,31.616793526127314
8.025,-19.575060139836,34.07711490294034
8.05,-16.535727090474705,36.207630978701566
8.075,-13.199702735577606,37.64868146707525
8.1,-9.4078975922126,38.07168890532931
8.125,-5.026082542223541,37.090219370160185
8.15,-0.09566563183761222,34.210339431088954
8.175,5.061696794082404,29.05799646197041
8.2,9.944565525345752,21.83578805748483
8.225,14.116855520147118,13.640716169977898
8.25,17.28951856615585,6.20943731921255
8.275,19.21999494329173,1.2276332795487055
8.3,19.802722224894143,-0.4632141679384815
8.325,19.46725465691103,0.3863846348995903
8.35,18.879287474983133,1.887882848728366
8.375,18.091961964191906,2.7806676730260085
8.4,16.934127476440047,3.384329521739783
8.425,15.391668251079105,4.077621037997797
8.45,13.520486551172498,4.580984122209093
8.475,11.583260842644199,4.919126272843389
8.5,9.677727853835437,5.3604362910973515
8.525,7.748518088353054,6.325091065267882
8.55,5.74104176991923,7.809100456274596
8.575,3.7203892469504733,9.323155599311871
8.6,1.854221426716614,10.457459458181901
8.625,0.27835501753079006,11.234669950590483
8.65,-0.9567106588135874,11.895354171552981
8.675,-1.8730254590958748,12.575242654118968
8.7,-2.5218053500664976,13.333926745340763
8.725,-2.9478778817785476,14.179977419631298
8.75,-3.1865100457756217,15.050281442673588
8.775,-3.276453563000245,15.856961562095755
8.8,-3.264866011739056,16.563036981911853
8.825,-3.1978469796550275,17.215313042680567
8.85,-3.116540135385701,17.902196221735537
8.875,-3.066791988203144,18.724702549763506
8.9,-3.1063366770335223,19.776957806625834
8.925,-3.2950240679121467,21.083695082729236
8.95,-3.6561531514969396,22.62662030982633
8.975,-4.173848653567463,24.400396621484298
9.0,-4.872972531124821,26.355098587309783
9.025,-5.861728076334939,28.366842557760776
9.05,-7.231109100649435,30.09737798243055
9.075,-8.961782050005295,30.83792986532654
9.1,-10.980537183206492,30.05365542717521
9.125,-13.21956075177936,28.13695549106674
9.15,-15.590550815619492,26.07307914880263
9.175,-17.95591266279022,24.371421014624513
9.2,-20.156167069192854,22.537813190518126
9.225,-21.986891197181524,20.12108031870982
9.25,-23.17338163122168,17.746473904933044
9.275,-23.562476352380738,16.102903585708415
9.3,-23.215926031085463,15.085815494816623
9.325,-22.19427547517038,14.271716112878247
9.35,-20.491358121705872,13.372207996657524
9.375,-18.157505717225256,12.399311179295921
9.4,-15.325814254963019,11.623434205384246
9.425,-12.13328381798511,11.260975660073868
9.45,-8.69701656017254,11.195123864963229
9.475,-5.172441116563221,10.90847039705525
9.5,-1.7242774137840804,9.814303130571894
9.525,1.591137829221417,7.920168036697699
9.55,4.801699591443203,5.920667954254343
9.575,7.8545354650844255,4.4415495780640635
9.6,10.604972769929631,3.529207804956967
9.625,12.931719069791317,2.8529286548189354
9.65,14.802546633154005,1.9578485042196898
9.675,16.276576940449793,0.5034308808575727
9.7,17.421897347766272,-1.5258704974659896
9.725,18.231572751456692,-3.9039908699173775
9.75,18.64413566917068,-6.211513354007798
9.775,18.61458229988323,-7.875162721126723
9.8,18.18740228792696,-8.445158127580514
9.825,17.42536032886358,-7.763250295299239
9.85,16.182732463449543,-6.150990325657489
9.875,14.431563952771674,-3.9239079268389836
9.9,12.552749153533973,-1.2720611464513512
9.925,10.740607418566931,1.4529736741676376
9.95,9.07404161810992,3.825725047594117
9.975,7.623179130356768,5.533263649583862
10.0,6.351649291121375,6.72749955374358
10.025,5.241994079110303,7.927876355088244
10.05,4.270121257679728,9.145227796177918
10.075,3.441339688134148,10.041696818850651
10.1,2.770887808774017,10.578665884644579
10.125,2.2224568904495623,10.938686791549745
10.15,1.7310267466736697,11.315503742059562
10.175,1.2543147763900184,11.818894504628718
10.2,0.8025268022261075,12.46403944801851
10.225,0.4057092001636313,13.192897756768536
10.25,0.08503724721461738,13.85894585184612
10.275,-0.14615647745357394,14.29801455042854
10.3,-0.27768828315069893,14.456921280426677
10.325,-0.29865407328662147,14.438157208226851
10.35,-0.20201914400801538,14.425237578676205
10.375,-0.013362039494754327,14.555387157913994
10.4,0.22070780802758072,14.837428895221777
10.425,0.4725686873547524,15.190729063844216
10.45,0.7381879512269663,15.556295103897824
10.475,1.0099979060152957,15.965115429765468
10.5,1.2768693094250005,16.48121179334251
10.525,1.5357620991364287,17.106715466118835
10.55,1.7933631400121512,17.8161057198854
10.575,2.0552755683591655,18.639783544984247
10.6,2.304932371241106,19.62116166970777
10.625,2.512553204688491,20.755484438738154
10.65,2.6545086523036523,22.01780547463629
10.675,2.714081975095881,23.273609211983857
10.7,2.688801848284839,24.16779506541393
10.725,2.5814401839635095,24.371954514435416
10.75,2.37299721208008,23.852797803150857
10.775,2.0271742072616585,22.803717613264975
10.8,1.503638906505432,21.43203361439997
10.825,0.7653752342416632,19.86871389510235
10.85,-0.21042665349192993,18.200593359285943
10.875,-1.4335910263211158,16.504827174722973
10.9,-2.896903766870479,14.849583378313806
10.925,-4.563621671558533,13.206807659175164
10.95,-6.359239955758287,11.573535190237983
10.975,-8.185572370103829,10.180074616298631
11.0,-9.957978363303038,9.21832520685209
11.025,-11.631836836093905,8.539311308401318
11.05,-13.168527371819646,7.869504084219561
11.075,-14.537348564932906,7.040280800785933
11.1,-15.743819005499528,5.992582026039328
11.125,-16.831253331106414,4.733548092416153
11.15,-17.85692227219944,3.2504941539179097
11.175,-18.867683903963773,1.5525795517583345
11.2,-19.892858977727027,-0.23929369239398934
11.225,-20.939784677565257,-1.971190679472959
11.25,-22.0081242177791,-3.5780442434990856
11.275,-23.112449779011108,-5.05943374065483
11.3,-24.28354339389452,-6.451991137613994
11.325,-25.552135317021225,-7.85670101877049
11.35,-26.93122268852189,-9.354733082364692
11.375,-28.37983023040136,-10.89590464542302
11.4,-29.846969371116078,-12.426850191926647
