Time [s],Flexion(+)/extension(-)
0.0,-0.4206685847355832
0.025,-0.4107339271043447
0.05,-0.4004989465451411
0.075,-0.3951640803020676
0.1,-0.3890170358553572
0.125,-0.37441700407359335
0.15,-0.35320309863630694
0.175,-0.33359120404949055
0.2,-0.32133120657829467
0.225,-0.3168834086836754
0.25,-0.3181596894230093
0.275,-0.3224392679308246
0.3,-0.32653594364850086
0.325,-0.32946341021878606
0.35,-0.33488011763296704
0.375,-0.342862905340501
0.4,-0.35082055712273114
0.425,-0.3582761461064156
0.45,-0.36186089805226485
0.475,-0.3574759934810439
0.5,-0.34706338534199876
0.525,-0.33641809384924837
0.55,-0.32840246189211453
0.575,-0.3232985035683213
0.6,-0.31915072435922326
0.625,-0.3119025948190911
0.65,-0.29930341100037106
0.675,-0.28565050819163407
0.7,-0.27526622430838205
0.725,-0.26822117912115995
0.75,-0.26806500254943527
0.775,-0.27926325940316354
0.8,-0.29740876626471857
0.825,-0.3145626578738389
0.85,-0.32885554468496886
0.875,-0.34245402348279846
0.9,-0.357171913890197
0.925,-0.36960420763389706
0.95,-0.3774266034054655
0.975,-0.38630438570402836
1.0,-0.40215179698298176
1.025,-0.42433948307304237
1.05,-0.44713779680757026
1.075,-0.46252436208012104
1.1,-0.4647234249322153
1.125,-0.456697410668434
1.15,-0.44761539943727024
1.175,-0.4432967389196485
1.2,-0.4423179151331205
1.225,-0.4417375016767585
1.25,-0.4383028911913187
1.275,-0.4280958520429237
1.3,-0.41165184213544287
1.325,-0.38999815666580995
1.35,-0.36207430742730073
1.375,-0.32891973197802027
1.4,-0.29466893899909674
1.425,-0.2587671364834938
1.45,-0.21679626721591158
1.475,-0.16792076598082437
1.5,-0.11701563702807136
1.525,-0.06704042516327718
1.55,-0.01843278963244592
1.575,0.027303505871121868
1.6,0.06985796890769586
1.625,0.11292560051511084
1.65,0.16077053191277552
1.675,0.21380844257904436
1.7,0.26810472762187965
1.725,0.3225786487110492
1.75,0.3773259098264848
1.775,0.4278647404124393
1.8,0.46715050160543276
1.825,0.49251301889467886
1.85,0.5078545897283908
1.875,0.5197529135780226
1.9,0.529527896135656
1.925,0.5339013622732421
1.95,0.5317449016337856
1.975,0.526646911885752
2.0,0.5212560510066685
2.025,0.5142645018443703
2.05,0.5032528529128937
2.075,0.4893784583306921
2.1,0.47546736904935005
2.125,0.4629880443243619
2.15,0.4524365240949579
2.175,0.4430264760043527
2.2,0.4335239439499988
2.225,0.4225079106447457
2.25,0.40772842988006114
2.275,0.38642098403459246
2.3,0.3572135120502705
2.325,0.32280353751452706
2.35,0.2854903264840911
2.375,0.24271703356206598
2.4,0.19288101491978626
2.425,0.14023604715621937
2.45,0.09122896654627861
2.475,0.048847009109500315
2.5,0.011760484400808593
2.525,-0.019425911852708828
2.55,-0.04223209045488647
2.575,-0.05512323849357125
2.6,-0.05651776688660163
2.625,-0.04929095244548198
2.65,-0.042859930232553745
2.675,-0.04302010123496414
2.7,-0.04825921509905519
2.725,-0.053904445179936096
2.75,-0.0578609719617684
2.775,-0.06103225050053633
2.8,-0.06328429818272796
2.825,-0.06290877309233665
2.85,-0.05824023778595257
2.875,-0.048780232565571784
2.9,-0.03701791003863227
2.925,-0.02787579831702829
2.95,-0.02415559564523697
2.975,-0.023726679903809913
3.0,-0.027077425479484076
3.025,-0.0398243796924007
3.05,-0.06411770163990071
3.075,-0.09163501677360414
3.1,-0.11448673643078483
3.125,-0.1336862921119762
3.15,-0.14979881277546675
3.175,-0.15813352605336767
3.2,-0.15559221203296433
3.225,-0.1453919354571047
3.25,-0.1359799901190453
3.275,-0.13234109648515738
3.3,-0.13191245647813396
3.325,-0.1301891370847987
3.35,-0.12418722578040245
3.375,-0.11076882635476257
3.4,-0.09251951863884983
3.425,-0.07726414971482229
3.45,-0.07216534758412659
3.475,-0.07425260244583062
3.5,-0.07130846538243829
3.525,-0.06201763001407671
3.55,-0.06028616708151886
3.575,-0.07679186685683653
3.6,-0.10943755043787264
3.625,-0.14689393928263675
3.65,-0.17823607279865
3.675,-0.19806760189382408
3.7,-0.20678484672599842
3.725,-0.20917907919134776
3.75,-0.2107983073910349
3.775,-0.21363160129322584
3.8,-0.21515082425591897
3.825,-0.21489252593231603
3.85,-0.21785478904214448
3.875,-0.22915805747790016
3.9,-0.24638804099422076
3.925,-0.26214116419040284
3.95,-0.2722953478834687
3.975,-0.27532819263037595
4.0,-0.27192672815525687
4.025,-0.2636043444559375
4.05,-0.2502905561861286
4.075,-0.2293194549879406
4.1,-0.1992711960823697
4.125,-0.16284810486837797
4.15,-0.12654841349653795
4.175,-0.09471995740379338
4.2,-0.0633065885621343
4.225,-0.026747321391949363
4.25,0.012936656421947445
4.275,0.04674630575880031
4.3,0.0711968969635017
4.325,0.08722328978686449
4.35,0.0967156776113889
4.375,0.10170109317723647
4.4,0.10752811852572408
4.425,0.12111473437578853
4.45,0.14128655139116233
4.475,0.1602661474291742
4.5,0.17305968493794763
4.525,0.18230245866898317
4.55,0.19354994479706483
4.575,0.21176668719544064
4.6,0.23663371423777205
4.625,0.260329119414532
4.65,0.2814992383042703
4.675,0.30360717515569224
4.7,0.32581773224433463
4.725,0.34572943622869934
4.75,0.3619756075899767
4.775,0.37455429715728594
4.8,0.38652354695165375
4.825,0.40236936712447013
4.85,0.4196881743974306
4.875,0.43316694510134623
4.9,0.4385014350833128
4.925,0.4312858081859261
4.95,0.41414219820512177
4.975,0.3909276319754569
5.0,0.3611735343737598
5.025,0.32753166462780736
5.05,0.29387452078949444
5.075,0.2644463432502892
5.1,0.24172703845136814
5.125,0.22774323862740653
5.15,0.22468293279178433
5.175,0.22968424830099018
5.2,0.23853430516891416
5.225,0.24925048235578157
5.25,0.26326749632705704
5.275,0.2804060433900886
5.3,0.2999673795472868
5.325,0.3225782796795201
5.35,0.3490271211363952
5.375,0.378001405622374
5.4,0.4062563787328053
5.425,0.4318362319230099
5.45,0.45146116515584767
5.475,0.4675294017989274
5.5,0.4845499095406642
5.525,0.5009284462345598
5.55,0.5141500768051467
5.575,0.5270281771961874
5.6,0.544526106893824
5.625,0.5685626657939562
5.65,0.5971182967073023
5.675,0.6242153241246393
5.7,0.6443115857399571
5.725,0.6579885645870086
5.75,0.6710206199473245
5.775,0.6864295455310772
5.8,0.7026198705848392
5.825,0.718016398917448
5.85,0.7335519191603129
5.875,0.7456407875807489
5.9,0.7486699784375515
5.925,0.7501549400938596
5.95,0.7609717533452518
5.975,0.7791658680346351
6.0,0.8061883425774319
6.025,0.8818843836057634
6.05,1.0762942847633843
6.075,1.4059309795110977
6.1,1.7882810661615653
6.125,2.135316699413018
6.15,2.3877665744788623
6.175,2.5199022441914534
6.2,2.5715747135972173
6.225,2.582114780558135
6.25,2.589344788069352
6.275,2.6213993639465865
6.3,2.6777003694477033
6.325,2.7394587720304555
6.35,2.8012948504352657
6.375,2.875396916235427
6.4,2.977148964303662
6.425,3.1214698479476946
6.45,3.3209236752738156
6.475,3.5818098993517036
6.5,3.9041971966914573
6.525,4.289871839854148
6.55,4.742373222676192
6.575,5.25671926357065
6.6,5.826300181804263
6.625,6.458270018317826
6.65,7.190299764087832
6.675,8.07309064983841
6.7,9.148658548592667
6.725,10.443852289929099
6.75,11.9858475542785
6.775,13.849954666117112
6.8,16.138605029379608
6.825,18.80715860983002
6.85,21.612739876061458
6.875,24.265684893274546
6.9,26.719834270020907
6.925,29.367879260482106
6.95,32.542274350249734
6.975,36.04496134137539
7.0,39.2459440256869
7.025,41.56191900534737
7.05,42.799222208562554
7.075,43.05042107212474
7.1,42.42944763181331
7.125,41.057109923095375
7.15,39.103257444282136
7.175,36.768444828496904
7.2,34.26108538867091
7.225,31.708388932117273
7.25,29.072988716678164
7.275,26.26582855919173
7.3,23.372356089899036
7.325,20.674205862921017
7.35,18.625587994729187
7.375,17.792129567379106
7.4,18.503046521562325
7.425,20.32826186521652
7.45,22.033418181618934
7.475,22.705426494985343
7.5,22.79665844087899
7.525,23.041879286124942
7.55,23.319768729998614
7.575,23.344941466178604
7.6,23.07058177880658
7.625,22.50455785800974
7.65,21.60867217647207
7.675,20.46094775607759
7.7,19.257430056259505
7.725,18.111997801813093
7.75,17.050164259801978
7.775,16.067339586635725
7.8,15.14656070771737
7.825,14.284161317023422
7.85,13.468745577587482
7.875,12.686028794959313
7.9,11.938810839070557
7.925,11.24343837860486
7.95,10.60040770214092
7.975,9.984160642074118
8.0,9.350281824827395
8.025,8.667277930573382
8.05,7.932433241327511
8.075,7.156118468656263
8.1,6.348057979901885
8.125,5.509073270380345
8.15,4.6336165958763
8.175,3.743532670534425
8.2,2.9378846745537706
8.225,2.4068019094359996
8.25,2.407344165597041
8.275,3.2529576207047155
8.3,5.260552141543572
8.325,8.608564206380285
8.35,13.043454287005376
8.375,17.902271166695495
8.4,22.746060784586515
8.425,27.459427984607498
8.45,32.07351352539573
8.475,36.57722268706296
8.5,40.74718673990201
8.525,44.25111487271646
8.55,46.85609118782075
8.575,48.49437200934803
8.6,49.184382316516746
8.625,48.94724225279243
8.65,47.75706858386165
8.675,45.58785214376412
8.7,42.4621689776496
8.725,38.450640136269406
8.75,33.65589203952708
8.775,28.37302779669468
8.8,23.174492254491543
8.825,18.57601411727332
8.85,14.897903253326472
8.875,12.377237952901144
8.9,11.009070580573896
8.925,10.680417117379376
8.95,11.078347562616772
8.975,11.80204158625525
9.0,12.483268425081313
9.025,12.867373974116086
9.05,12.991172761183662
9.075,13.005121976308994
9.1,13.041591168048116
9.125,13.17787460885736
9.15,13.40571221760451
9.175,13.654513566822146
9.2,13.851643191850346
9.225,13.950855141987093
9.25,13.934445752937659
9.275,13.810271289915004
9.3,13.632119301265435
9.325,13.482577658198407
9.35,13.432250543540386
9.375,13.521816714911232
9.4,13.774103225426883
9.425,14.203401165907923
9.45,14.805856527755735
9.475,15.557742873121038
9.5,16.423206226068956
9.525,17.336798158865527
9.55,18.20801414985225
9.575,18.98032808992706
9.6,19.619206351102342
9.625,20.056727152485422
9.65,20.227720539075378
9.675,20.09540700450287
9.7,19.659389917534835
9.725,18.947771662760527
9.75,18.02921271366178
9.775,17.070178013825398
9.8,16.347078277656816
9.825,16.13767894996861
9.85,16.544769685831266
9.875,17.38180711137319
9.9,18.35817876946057
9.925,19.442734092361597
9.95,20.85876362961634
9.975,22.629994564492204
10.0,24.517388150943255
10.025,26.224385745638763
10.05,27.526463906971518
10.075,28.40670858366326
10.1,28.97531414312679
10.125,29.328491046456342
10.15,29.46920415835557
10.175,29.29773117787858
10.2,28.723066712923725
10.225,27.777594718999087
10.25,26.59790314011948
10.275,25.285122245660677
10.3,23.812670025992023
10.325,22.097674824105138
10.35,20.096161657562412
10.375,17.819834232202965
10.4,15.353039027112912
10.425,12.891520553527496
10.45,10.69334466086306
10.475,8.879600510321179
10.5,7.488689598213616
10.525,6.687840596141212
10.55,6.365316813388647
10.575,6.221903439313284
10.6,6.244587876912538
10.625,6.427656585816328
10.65,6.627789117270937
10.675,6.753121385852625
10.7,6.81391933605639
10.725,6.829006480453277
10.75,6.781789232704601
10.775,6.64195911238784
10.8,6.3746969113697896
10.825,5.958620358038218
10.85,5.410018787129115
10.875,4.744545174841508
10.9,3.960730262488283
10.925,3.0887224709250964
10.95,2.2227575339740087
10.975,1.48501796768979
11.0,0.958611113611259
11.025,0.6451283351708472
11.05,0.4888033047783449
11.075,0.4324059658202505
11.1,0.43711758524142397
11.125,0.47707901664602503
11.15,0.5286706522589987
11.175,0.579026380598078
11.2,0.6282431805866017
11.225,0.6689780613489354
11.25,0.6871402922115006
11.275,0.6786132010940484
11.3,0.6483000895048291
11.325,0.6013298570671807
11.35,0.5451627123003695
11.375,0.48942922373840547
11.4,0.4451320222362023
11.425,0.423815209080547
11.45,0.4298089010867678
11.475,0.45903531552623605
11.5,0.49982364903348253
11.525,0.541947080073262
11.55,0.5838721184010011
11.575,0.626086013192887
11.6,0.6672937830734034
11.625,0.7052632982103282
11.65,0.7396795593760278
11.675,0.7715036654321913
11.7,0.7977266218273367
11.725,0.8147250916295634
11.75,0.8226364686992436
11.775,0.8266876981124914
11.8,0.8316687986478919
11.825,0.8380494422513602
11.85,0.8466487491685839
11.875,0.8560542440570668
11.9,0.8653266695230515
11.925,0.8798759609968028
11.95,0.9070793985736414
11.975,0.9466514964590931
12.0,0.9880232906665596
12.025,1.0178889820705068
12.05,1.0319433004086456
12.075,1.0324945395999368
12.1,1.0217200473973096
12.125,1.0010959330178988
12.15,0.9707588847026916
12.175,0.9300744010093418
12.2,0.883492669474595
12.225,0.8401786120605221
12.25,0.8082327280858369
12.275,0.7894186840850121
12.3,0.7788774602969828
12.325,0.7714516468255891
12.35,0.7629014428962287
12.375,0.7531035041281702
12.4,0.745411463313487
12.425,0.7438843040210377
12.45,0.7520857654369948
12.475,0.7692232027840699
12.5,0.7935548318080768
12.525,0.8252305677209666
12.55,0.8662284624319939
12.575,0.9215860163024516
12.6,0.9930704558504094
12.625,1.0777965846426496
12.65,1.1784973154978036
12.675,1.3006594934839544
12.7,1.451330458388092
12.725,1.6491441167522658
12.75,1.9199381505439646
12.775,2.28605559013681
12.8,2.763742455614958
12.825,3.3647111333083415
12.85,4.095922388208706
12.875,4.956096888383855
12.9,5.93155581634658
12.925,6.977994615450602
12.95,8.035883306705678
12.975,9.045338640752446
13.0,9.96157341876794
13.025,10.769615839144471
13.05,11.466888200269661
13.075,12.049273378082585
13.1,12.512970619957262
13.125,12.85094943463173
13.15,13.067358043119945
13.175,13.186064994086166
13.2,13.236960773380666
13.225,13.25792401901901
13.25,13.283811408886702
13.275,13.336251946515226
13.3,13.431147912000577
13.325,13.54925516610024
13.35,13.606171591849646
13.375,13.509796244681255
13.4,13.24702183513687
13.425,12.943857692876255
13.45,12.737830947846444
13.475,12.63051686223348
13.5,12.542903331201662
13.525,12.436798857454242
13.55,12.332787042961254
13.575,12.247173706000773
13.6,12.182842908608391
13.625,12.139797840604222
13.65,12.120043579201823
13.675,12.12787762679587
13.7,12.16527054482962
13.725,12.230829991123677
13.75,12.323755646157746
13.775,12.44012772797176
13.8,12.577892673321964
13.825,12.73328561230021
13.85,12.894028385894117
13.875,13.049123053268508
13.9,13.197340441541918
13.925,13.342454089179917
13.95,13.48199119377917
13.975,13.612624924092236
14.0,13.73089472558844
14.025,13.833397509999426
14.05,13.920226047063625
14.075,13.991845224825129
14.1,14.052407869887684
14.125,14.102833864777159
14.15,14.142917709506122
14.175,14.178125876360113
14.2,14.21559634542172
14.225,14.264771865967576
14.25,14.33429775398343
14.275,14.42774603248786
14.3,14.537377907431374
14.325,14.646902132261328
14.35,14.739451607658436
14.375,14.801795029125799
14.4,14.8330023283558
14.425,14.8472430042904
14.45,14.862146479306455
14.475,14.889874907148563
14.5,14.934650776666851
14.525,14.992972453025384
14.55,15.056916916314059
14.575,15.11360042143538
14.6,15.152609399188213
14.625,15.168572464053389
14.65,15.162006000564528
14.675,15.136622962377627
14.7,15.105135206513939
14.725,15.079754562469223
14.75,15.067376947864714
14.775,15.069657791112023
14.8,15.078274460867375
14.825,15.081029453661783
14.85,15.072599094897006
14.875,15.052442230965788
14.9,15.02607734999783
14.925,15.000102651613991
14.95,14.976781355645732
14.975,14.955924539403759
15.0,14.935315875333247
15.025,14.910082137946437
15.05,14.874888944140691
15.075,14.823310871120812
15.1,14.750531287654425
15.125,14.660028138746151
15.15,14.557898816427741
15.175,14.453000994162206
15.2,14.359505337850235
15.225,14.285155295108812
15.25,14.22976456983168
15.275,14.190446877098855
15.3,14.159760056526007
15.325,14.127430655654788
15.35,14.08773977115491
15.375,14.0385906506206
15.4,13.979731854852204
15.425,13.91394577144758
15.45,13.845922889088566
15.475,13.77862287446497
15.5,13.7177968975674
15.525,13.666981197734126
15.55,13.62406474197601
15.575,13.57836152310015
15.6,13.522382169631772
15.625,13.463307253794012
15.65,13.40792154702305
15.675,13.353619415827369
15.7,13.299809489293127
15.725,13.2501690739493
15.75,13.20568514201188
15.775,13.166413212537758
15.8,13.136078144210687
15.825,13.121205944899732
15.85,13.124832374167896
15.875,13.141087884496194
15.9,13.163992074647718
15.925,13.188685005567766
15.95,13.208160296886417
15.975,13.218633197434936
16.0,13.216594214755718
16.025,13.200100990033462
16.05,13.167438663289332
16.075,13.11646506793287
16.1,13.047510463174405
16.125,12.963236303170769
16.15,12.870433374729835
16.175,12.776708995631664
16.2,12.682774078164375
16.225,12.587209283528432
16.25,12.494055005910484
16.275,12.410215898895226
16.3,12.33422968343553
16.325,12.262646086806997
16.35,12.197219496658123
16.375,12.138656373840808
16.4,12.081922435819747
16.425,12.023263985593289
16.45,11.965800084942492
16.475,11.914507309342065
16.5,11.869456999635393
16.525,11.82994021380006
16.55,11.792503410848473
16.575,11.751146730637767
16.6,11.70432396489175
16.625,11.654617262414702
16.65,11.605257440796004
16.675,11.553791500963847
16.7,11.497804535717345
16.725,11.440485653109778
16.75,11.38222779631712
16.775,11.32142820363412
16.8,11.256775261144316
16.825,11.185661781552373
16.85,11.105124899817085
16.875,11.021814114447396
16.9,10.940239439178585
16.925,10.867497944867912
16.95,10.806099015133434
16.975,10.758979498892867
17.0,10.728959350085065
17.025,10.715228938011435
17.05,10.713750533876178
17.075,10.722380704896961
17.1,10.73530517239771
17.125,10.7388299927861
17.15,10.722120319907878
17.175,10.681231003722903
17.2,10.62279070179154
17.225,10.564439807851096
17.25,10.523135715074918
17.275,10.507645574515218
17.3,10.514223616982493
17.325,10.531286303190482
17.35,10.557184505714135
17.375,10.593082791533108
17.4,10.635273895624296
17.425,10.669168700897252
17.45,10.688471257603311
17.475,10.702118771831273
17.5,10.717080345856749
17.525,10.734217297925921
17.55,10.749404527226554
17.575,10.761218844461336
17.6,10.76758272868622
17.625,10.764850783158147
17.65,10.755531728736077
17.675,10.742710375862849
17.7,10.726150290445204
17.725,10.707361865776289
17.75,10.688475822181605
17.775,10.66525456509097
17.8,10.629933707849569
17.825,10.574123712090698
17.85,10.494030832496605
17.875,10.389945633750303
17.9,10.25713048915674
17.925,10.087920895320531
17.95,9.880451828192115
17.975,9.63897373021158
18.0,9.367250372744135
18.025,9.061590991373905
18.05,8.72058046230255
18.075,8.360079202469981
18.1,8.001543595740042
18.125,7.651947208685193
18.15,7.308938446206456
18.175,6.977251147692628
18.2,6.664330026785817
18.225,6.365976317776646
18.25,6.069926616475577
18.275,5.770561492599875
18.3,5.475385535862711
18.325,5.191942293618364
18.35,4.925800540077667
18.375,4.684466617536135
18.4,4.4704112739375645
18.425,4.28075417499499
18.45,4.115302036266648
18.475,3.978957702123841
18.5,3.8783870500674174
18.525,3.8170926823915363
18.55,3.7885820430865165
18.575,3.7756183723638763
18.6,3.761668040620936
18.625,3.743325751086168
18.65,3.7248679562006073
18.675,3.701222931797943
18.7,3.6666242430166927
18.725,3.6258653199807953
18.75,3.5836818035834512
18.775,3.535289398873574
18.8,3.4781796164734966
18.825,3.417377795134892
18.85,3.359597992352856
18.875,3.303802310834529
18.9,3.2442859789123513
18.925,3.1833302438467426
18.95,3.1325827865479443
18.975,3.0967370005116877
19.0,3.0697032581131576
19.025,3.0474151470122663
19.05,3.036065019923464
19.075,3.0522809542489693
19.1,3.1172485919235324
19.125,3.2546805616210124
19.15,3.4972610157145745
19.175,3.896122927150714
19.2,4.506619119771012
19.225,5.370437876906588
19.25,6.512277467879105
19.275,7.939650514906441
19.3,9.639321834641148
19.325,11.600190593116015
19.35,13.815543170547635
19.375,16.195169945664897
19.4,18.519121580161084
19.425,20.5597572779187
19.45,22.103363434338654
19.475,23.0374344163538
19.5,23.375122193902413
19.525,23.153520603196046
19.55,22.369927155119168
19.575,21.09181485205361
19.6,19.483048885213798
19.625,17.657673680389376
19.65,15.829674471326392
19.675,14.400234791525557
19.7,13.679867949685873
19.725,13.69230310663103
19.75,14.156685152544439
19.775,14.667860096847164
19.8,15.104016309419318
19.825,15.556173929435893
19.85,16.046624449649325
19.875,16.496671868940084
19.9,16.865613880169608
19.925,17.22952820204406
19.95,17.659624433757998
19.975,18.14677720918936
20.0,18.674798858040223
20.025,19.25384894877992
20.05,19.872989662060803
20.075,20.448445873371643
