Time [s],Flexion(-)/extension(+),Abduction(+)/adduction(-),Internal(-)/external(+) rotation
0.0,16.418170159662193,-1.2143087959763372,11.188679325712656
0.05,14.713609236345018,-1.1592008409652348,10.966601277647293
0.1,12.970463220211368,-1.1219328503113228,10.729403628971664
0.15,11.404301716346758,-1.065187033991704,10.596355228425741
0.2,10.532520431063501,-0.9550013595720451,10.625869929245374
0.25,10.53933969251004,-0.7180267364838524,10.734758024618491
0.3,11.22458544898227,-0.5374263326372067,10.827591549981289
0.35,12.231275172432102,-0.506113894314916,10.906959055228787
0.4,13.067805877607434,-0.6124112902558416,10.908117784276298
0.45,13.711155930430412,-0.7531108375284539,10.938288308888056
0.5,14.031575167386594,-0.7528116273609293,11.000761649907997
0.55,14.234135133771277,-0.7829481303334491,11.04814383017235
0.6,14.9250854892446,-0.7738191379025541,11.193625276067255
0.65,15.322971590669047,-0.7744443593975493,11.245766481414162
0.7,15.510015771667389,-0.8377605350776662,11.261853713491963
0.75,15.563526658776768,-0.8233336534800495,11.280100154127531
0.8,15.605793835064278,-0.7525773471814448,11.309991137720582
0.85,15.687432495822215,-0.7240764255480991,11.327263256671294
0.9,15.656203571723522,-0.7833464269678097,11.30707159614526
0.95,15.438717356403926,-0.8302937920023501,11.289308612542134
1.0,14.907548424639593,-0.782937294075672,11.29406376702593
1.05,13.685727914552817,-0.6134241080789236,11.297474235939712
1.1,11.556374609056318,-0.3512705975428366,11.240390723568733
1.15,9.433056949611059,-0.0584925584866733,11.088780214771413
1.2,8.251858089890458,0.03961051886792043,10.914102701167623
1.25,7.800170748674959,0.049267305958238784,10.759848959180186
1.3,7.94293127795666,0.016309552144649426,10.62466278437085
1.35,8.60266277379027,-0.1250735660460209,10.582019160603714
1.4,9.473530722860515,-0.3440074053310228,10.577981852260404
1.45,10.425979940415877,-0.5290787794409963,10.604644093419864
1.5,11.45565041149525,-0.6290573309923654,10.682612044975556
1.55,12.358740104927689,-0.6383424158141392,10.76569628681624
1.6,13.097823769939176,-0.6206782747359544,10.773574125376888
1.65,13.563023332498396,-0.60782490622841,10.675424945534731
1.7,13.67865563166546,-0.620206160709063,10.434248093933721
1.75,13.72689142692006,-0.4685674943812063,10.09513557415491
1.8,14.061039091250102,-0.3670704202452229,9.831416662444108
1.85,14.37410988057485,-0.5610242108002836,9.695487004234957
1.9,14.475067046983497,-0.9700625169625435,9.484171217470776
1.95,14.374012829123151,-1.6125561950087297,9.018351380035988
2.0,13.53658433533897,-2.4966665710990594,8.15665792845298
2.05,11.992091047595165,-3.013435945721126,6.876943422881393
2.1,10.298638726400409,-2.893395467796031,5.10658666310896
2.15,7.991827894291089,-2.9796035240701277,3.740809117570556
2.2,5.263710947412777,-2.864715847432841,3.268944070609837
2.25,2.1585573393083743,-2.227107742998409,3.614888678938383
2.3,0.2697510276291976,-1.7499323060236645,3.5951140593563142
2.35,0.050125976076719744,-1.3511256223365402,2.501724355208406
2.4,-0.5035631204973544,-0.8323201491463276,1.3550150714354308
2.45,-0.6602146307003667,-0.05185632095362446,0.32383881539593096
2.5,-0.16107176371353643,0.872569465528735,-0.22310182172091245
2.55,-0.6331254293269933,1.6074049563459538,-0.5345406831948823
2.6,-3.7085662912558433,1.6506085258511667,-0.0940943279476165
2.65,-9.53884523130898,1.7406647723206399,-0.11168177274259009
2.7,-14.586144238261152,1.637216537148347,-4.067115878212689
2.75,-14.352668013550407,2.7266273011654443,-12.574717270250314
2.8,-14.806927174687816,3.9695348775029204,-15.283324739753109
2.85,-15.702737340127197,4.267806849142636,-11.20993724051266
2.9,-15.21435777037874,4.14631682669511,-6.1138532265353325
2.95,-13.678103818327138,4.304166568934417,-1.1465956870792582
3.0,-10.973484177145489,4.226639806970426,3.015295081774046
3.05,-8.430817522995918,3.0764688817501122,6.46154625399728
3.1,-8.123791881345248,0.7652110597178845,9.346521252656178
3.15,-6.045530180160291,-1.1223751686444043,7.2703899296873225
3.2,-3.6997920878842536,-1.5247671923098252,4.525049282718837
3.25,-2.70634984780285,-1.246793587277596,4.461376462036185
3.3,-2.8554483813155462,-0.7012377476248964,5.850089749943201
3.35,-3.305386405980176,-0.015736080775220394,7.763805259140527
3.4,-4.787294170755521,0.4516080481349905,6.437618572601037
3.45,-5.707578091471406,0.5078908960553397,3.615616815845137
3.5,-6.646603242253392,-0.5906227015928422,2.0478179124752662
3.55,-8.226749517997817,-1.7480413634768575,1.2567399256679448
3.6,-9.649233445275629,-2.573341341853817,0.5796859481735188
3.65,-10.944993319889974,-3.561618059048531,-0.30367236173408446
3.7,-12.706082285728195,-4.896708368706874,-0.8449382633337518
3.75,-14.607282311237029,-6.412596452136903,-1.030765234003648
3.8,-16.66313207104939,-8.029109755366683,-1.6954464995964924
3.85,-18.939045697178404,-9.635493308879182,-2.5952589209105805
3.9,-21.3898805352292,-11.347080626953536,-3.551807876648507
3.95,-23.665193578520956,-12.792505635879543,-4.739876789484262
4.0,-25.939293938442713,-14.077507466281919,-5.1966981760919735
4.05,-28.839129076695563,-14.935252035314104,-5.112895011878411
4.1,-32.74431333787277,-15.404925495765518,-4.397792836362118
4.15,-38.058461135139915,-15.96968987096658,-3.1336683859885506
4.2,-46.26781617938383,-15.68412974789595,-2.4031749611631867
4.25,-59.00164912813935,-14.353298266632853,-2.3234714768891207
4.3,-72.95153385915442,-12.021920935795714,-3.332952912805946
4.35,-81.98677564652938,-13.10605638803378,-3.6202929901460723
4.4,-88.02994574834989,-16.575423895020442,-4.050795796291307
4.45,-93.30090621803254,-16.458640965829677,-7.709234161005488
4.5,-97.49066356579408,-15.785505682501396,-12.122529386654955
4.55,-100.26438627529451,-17.571499989817216,-15.65638345060478
4.6,-102.08200800376271,-17.429555411372196,-20.30706343051266
4.65,-103.54116010102604,-16.873161893127612,-23.466072771726566
4.7,-104.51497653116105,-17.96097459285368,-24.868910555928334
4.75,-104.98360179871325,-19.28906948551635,-25.528270108754594
4.8,-105.70189022478726,-20.80966739689704,-25.643899215515436
4.85,-106.3703952412821,-20.51475394306653,-26.244608462428744
4.9,-106.68317157590407,-20.476287121648017,-26.768566777913247
4.95,-106.7735760130493,-21.363064395803423,-26.450540268624582
5.0,-106.7839048944971,-22.40097812312306,-26.061167220772923
5.05,-106.52559399986862,-22.02384045429409,-26.089181979748997
5.1,-106.30477349089975,-21.02976313167246,-26.076545776260375
5.15,-106.17058202760376,-19.975697263585648,-25.87662445192129
5.2,-106.30323587647764,-18.13199958761687,-25.991898187987935
5.25,-106.14989234199983,-15.163633778096566,-26.217940990134537
5.3,-105.1089061189618,-11.691024428663711,-25.773376031202396
5.35,-103.60842194984042,-8.236351436576019,-25.034726407838214
5.4,-101.03820092761671,-4.740346836833222,-24.210433908025838
5.45,-97.12370676497606,-1.5672042370475094,-23.318839373660072
5.5,-93.35676622476326,0.6487359977686913,-22.552463457815005
5.55,-90.890391419852,2.8512986558433973,-22.534907255381402
5.6,-87.04814146644618,7.24181294062318,-22.641476036786855
5.65,-82.87981353673091,10.0880308859986,-20.565086297061715
5.7,-79.40156146823519,11.632929664247117,-18.094347982123328
5.75,-77.05352440238273,12.942501295756045,-17.548182178845394
5.8,-75.41045803166031,13.730559302526485,-16.844366519628704
5.85,-74.32192473410879,13.4093630601951,-16.92826972516807
5.9,-72.89445923265977,12.235440918219862,-18.032437489202376
5.95,-70.65933313401108,11.684364510040135,-18.21980724609387
6.0,-68.69674274566651,10.726074186313244,-18.300170573862662
6.05,-66.42862152343771,9.256490169337178,-18.128221826164655
6.1,-63.4642172670609,7.060575108456363,-17.767200778073896
6.15,-60.473389007601035,4.558590595106333,-17.47139399390038
6.2,-57.77875350365918,1.9307624442622504,-16.554594298197017
6.25,-54.97944251503289,-0.41292108183115717,-15.66529230242454
6.3,-51.990442848602235,-2.5734252783365594,-15.012966593377023
6.35,-49.24214770202669,-4.331309651608241,-14.065128453590706
6.4,-46.22309095920554,-5.593965437600384,-12.685631481625782
6.45,-42.966400777290616,-6.889479586986196,-10.570559123522665
6.5,-40.9246668947696,-8.12613123156256,-8.247335382057797
6.55,-39.992459654665865,-9.330614456941413,-5.948858140928342
6.6,-40.73841533924981,-10.501146872657692,-3.3378898357421063
6.65,-42.489610953571706,-10.937820437772997,-1.6496442875786494
6.7,-44.01845751365768,-10.145287626505263,-2.0577001148750087
6.75,-44.7624613803661,-8.269469520434974,-4.137652749536596
6.8,-43.38559222203146,-6.5375803677037405,-5.997630521871229
6.85,-41.961830487828024,-6.379534240408679,-5.359031819088526
6.9,-40.684995423656446,-7.114604526772862,-2.32920769153877
6.95,-37.6973810717884,-7.607089657616829,-1.4815993487222563
7.0,-35.67982039187488,-7.804266650170177,-2.2719746242375956
7.05,-34.90819856178495,-8.832131350233634,-1.7319530196205735
7.1,-34.51622990727083,-9.836919624555751,-0.9955662609139786
7.15,-34.081284589851904,-11.042218713430207,0.5181687895292836
7.2,-33.38694108773066,-11.93349683263957,1.502554403154827
7.25,-33.00595910630274,-11.945798557671138,1.5346465674445018
7.3,-32.76930425040296,-11.440038173906991,1.4517545225114992
7.35,-32.73613078939551,-10.710284214286201,1.845104337074195
7.4,-32.857860667487415,-10.680066408813607,2.1642566545302313
7.45,-31.7053242034495,-11.431819349956083,1.3646868610935046
7.5,-29.230777169537166,-11.974669311703826,0.5054434891018091
7.55,-28.265652034717565,-12.050458008843195,1.2517014369293171
7.6,-28.61291787134865,-11.565760326559722,2.434277793515947
7.65,-29.014453444859758,-10.687997015108403,2.8757830597033673
7.7,-30.370322713050438,-8.873529052389857,1.0754990381522154
7.75,-33.46298944577153,-6.765637397123379,0.20191531578715413
7.8,-37.446691942301264,-5.836380642350369,1.603460683750141
7.85,-38.89722447510842,-5.583748143984922,2.4317833450712483
7.9,-37.25059253798396,-4.271086224673854,-0.40989003510272176
7.95,-34.0335615463234,-1.9309612198765194,-3.966949869298975
8.0,-30.742206086401332,-0.4248688549518327,-2.5322995442252707
8.05,-28.431953546022214,-3.5010380096029636,7.356181816968989
8.1,-28.758166012840555,-5.9080221588897714,8.610792742734398
8.15,-26.838885663053507,-4.887747268209822,3.0003522152478443
8.2,-25.59652375039699,-3.9788103283128358,3.1904676560823306
8.25,-26.312005813546847,-3.46142427948378,3.1745972235851
8.3,-25.23973537646303,-2.953458964190986,2.33010449700821
8.35,-24.028802171556432,-2.8103413270889512,3.8677010762001647
8.4,-23.866046837638667,-2.36540584112774,4.230066775845056
8.45,-23.63661258512598,-1.710776585091829,3.649859553708092
8.5,-23.29317951474204,-0.9995039880536812,3.782722380113559
8.55,-23.368891117241574,-0.8080174775503859,3.7475007278320773
8.6,-23.400532371434974,-0.5173698186703385,3.3182242249098515
8.65,-23.402558479592017,-0.5504233288473455,3.83335839676236
8.7,-23.407736366970386,-0.7273903854646975,4.4831645666080275
8.75,-23.33956955271343,-0.5875722736318442,4.628973622641936
8.8,-23.415066014402043,-0.26319104939165877,4.7960026551846635
8.85,-23.804917187644,-0.19867748808853655,5.01372045868516
8.9,-24.012359315629997,-0.3577962932776416,4.881112814885187
8.95,-24.049660713100046,-0.6471554305569734,4.736251294685518
9.0,-23.801436383662796,-0.9981379539090768,4.577486557344144
9.05,-23.434040123609766,-1.2939031745357616,4.396403545337823
9.1,-23.02790991137843,-1.4844904827637153,4.402451377426851
9.15,-22.67301165175459,-1.5895321658016348,4.430078994707919
9.2,-22.31932353674367,-1.6174747535357037,4.346799874348731
9.25,-22.147213687228387,-1.6486803652757307,4.249950050609942
9.3,-22.022926830695198,-1.7754015226732929,4.159838000293193
9.35,-21.819977546714483,-1.9400893649222162,3.9824792855295716
9.4,-21.161360935939307,-2.1428726114533405,3.712022260503583
9.45,-19.987635250073854,-2.388914173062814,3.4567278488945714
9.5,-19.033337286054362,-2.6359667201526173,3.394261559053917
9.55,-18.517611524194596,-2.772405420285623,3.4089665290850117
9.6,-18.207990533911698,-2.6501786156603964,3.5441937035804614
9.65,-18.030615681152202,-2.538730527656878,3.714522495400862
9.7,-17.816671883587667,-2.496629032380938,3.8701650328456494
9.75,-17.602854133767064,-2.487944138773141,4.039143907602479
9.8,-17.351577100573614,-2.657929497765049,4.256149272651942
9.85,-17.057812591386217,-2.9183172361145084,4.150365095109035
9.9,-16.791200161176143,-3.207393799032548,3.6686033625074357
9.95,-16.910145457861603,-3.3226190824561668,3.1675422395159827
10.0,-17.268568175129467,-3.39232436507975,3.0567348247545443
10.05,-17.998137449383535,-3.4483105665631095,3.459137863289069
10.1,-19.038587430068585,-3.3578294706813843,3.9906117533772933
10.15,-20.384566832092585,-3.0142915749165855,4.446163796334054
10.2,-22.346592367336058,-2.461618635448023,5.286489128754474
10.25,-24.9515283989282,-2.0747032498511566,6.542305302016266
10.3,-27.538135361469777,-1.7490922669413398,7.574008077868819
10.35,-29.566939595365977,-1.0851582641593516,8.193677345172675
10.4,-31.449501993079203,-0.2578575896782094,8.627311525951878
10.45,-33.475819904104846,0.6528281590110535,8.50485818628769
10.5,-34.96978765136783,1.828443335605547,7.760396690102835
10.55,-35.79365520398385,2.7498803540805437,7.012021397319956
10.6,-35.97964976994636,2.9265948467119984,5.9262993000172415
10.65,-35.055941978487525,2.9720330036373848,4.822789604202725
10.7,-33.467048758980305,3.6110771195268283,3.4835886763690485
10.75,-32.22756788754559,4.775441550359141,3.7024008721092967
10.8,-30.811309174998307,3.962770468854502,5.1945150905245185
10.85,-29.46482386627395,1.6581505365639722,6.4109274160371985
10.9,-27.607868489376255,0.3173632892149221,6.003422834114981
10.95,-25.95347613531218,0.46779978201599753,5.592388845705812
11.0,-25.198829971478386,0.48843468364325454,5.327531753783175
11.05,-24.3627805870186,0.24084329195849855,4.616630099273731
11.1,-23.631857043823477,-0.22859943828696597,4.772770218864598
11.15,-23.46539722824019,-0.4634390049461625,4.788588806937571
11.2,-23.559203085205986,-0.46969527485304247,3.6190362533372173
11.25,-24.12369369706976,-0.36812981574038567,2.4151283053177703
11.3,-24.59816704377743,-0.1785721196271073,2.226746759226801
11.35,-24.75131657475319,0.15407705426615145,3.034470962308378
11.4,-24.190410092663093,0.7461171445362706,4.381103608328377
11.45,-22.04897834833896,1.2666750202014723,6.472625872147313
11.5,-18.481385554535446,1.5716533504052679,8.507782910110851
11.55,-15.880626000172713,1.6362173568800982,8.186032265581536
11.6,-13.390731690398493,-0.48824203085425305,4.50655811744268
11.65,-10.31215557557658,-1.976508435012535,1.955750827475464
11.7,-9.428985834248005,-0.8008852672331758,1.6460300264253966
11.75,-8.081920669767529,-0.15234785333235334,2.5441267105044214
11.8,-7.252457152813921,-0.05425764817959205,2.271070656566818
11.85,-8.76221261943021,0.2714166945051315,2.6235881880477994
11.9,-11.790607610558702,1.0837871027352208,2.6834039705233375
11.95,-14.299107203511914,1.9604612448485506,1.7827103233659063
12.0,-15.33217833729019,2.1435795381768625,0.5137022454655641
12.05,-16.111964199822253,2.1696318272134247,-0.2895076838135796
12.1,-16.19495705293566,2.536452953585301,-3.0939970076237495
12.15,-15.258098370920504,3.362797784699374,-6.690217499893659
12.2,-14.251401380367806,4.261153106683666,-9.727871738957905
12.25,-13.263035340302872,4.474189452565937,-10.234442391946988
12.3,-13.241876776246489,3.9693721960153163,-8.730328508701545
12.35,-13.351157132415523,2.947409777302043,-5.675616980485334
12.4,-12.759944801600538,2.274448059383956,-3.60718493541302
12.45,-10.835819993501127,2.2805198603691985,-5.4143810658007085
12.5,-9.865045485065261,2.1381881560826907,-6.74004932935443
12.55,-9.38369133310524,1.9132951198929804,-6.5321894954592565
12.6,-8.732483066886923,2.0497222388531506,-4.721019071779345
12.65,-8.083675550566435,2.1959517377614324,-2.6938692711030496
12.7,-7.5549665567292115,1.9570630364906376,-1.7822731296315237
12.75,-7.2295627774787,1.67598326826819,-1.6286514056690813
12.8,-6.690192705225824,1.646690921246476,-1.5719114546959196
12.85,-5.982083962029032,1.528803390812023,-1.5830532398625137
12.9,-4.822450274780282,1.2334623129342908,-1.9184947593595059
12.95,-2.998142860740248,0.7015346700373296,-2.845303055903286
13.0,-1.4922619551350993,0.5236799185773555,-3.9463524346506818
13.05,-0.9552600317800694,0.671787897138368,-4.374686601092472
13.1,-0.9356738961752378,1.0098913999154617,-4.686415885117785
13.15,-1.2653126305936255,1.1028843562382384,-5.595181666090867
13.2,-2.212307762443532,1.1515517307692915,-7.567279173044953
13.25,-2.3924396088476763,1.5024566854483679,-10.30309192978266
13.3,-3.2303026757041158,1.6691885576140235,-12.061081154395945
13.35,-4.0551988125516045,1.8185712606195468,-12.911171478714511
13.4,-4.5307257413231055,1.8119106604620974,-13.186911318973138
13.45,-4.131045582509077,1.8610147954439387,-13.12453733889793
13.5,-2.99042400106122,2.165719470450368,-12.344247054456552
13.55,-2.980209641962584,3.1164359082798256,-10.687105664026095
13.6,-6.505841213610507,3.7928149382111034,-8.964090037786761
13.65,-12.220456427716913,2.3445831110492557,-8.256853126187762
13.7,-15.478903127080333,2.3214454880202764,-10.43673953613924
13.75,-18.870361375272452,6.050184931598836,-12.310172961725476
13.8,-18.24306789395728,8.720101262401231,-9.655795184249428
13.85,-16.39368355807572,7.406979515038682,-1.3671151662707597
13.9,-14.121016065337855,4.431150506774277,2.4694878068689707
13.95,-11.952008566630923,2.3801145184102483,1.2246659773779727
14.0,-12.57146590938055,2.77195081035018,-0.019164430198111773
14.05,-12.988695574148476,4.222591659024513,-1.1636477308903495
14.1,-11.829169735797839,2.012633272751825,0.11542047944902034
14.15,-7.597073920579464,1.0065650844548542,-4.59171865671984
14.2,-3.9675870294446165,-0.504803888114374,-5.919957543779821
14.25,-1.0862675426654518,-2.331258950251497,-7.5784445187237175
14.3,0.29032945895354045,-3.8207894768191095,-8.777719472659971
14.35,1.2055855721008677,-4.615797342886419,-9.347543711692836
14.4,3.1089764125191954,-4.5123973612248625,-9.362757923663366
14.45,5.314933770982287,-4.503545406347349,-8.982144366255955
14.5,6.802625489537909,-5.898821617403003,-8.93860449874813
14.55,7.554929941622849,-8.038127634704795,-9.327269609148566
14.6,2.741110221072943,-9.366963544910517,-10.555883453194248
14.65,-6.3156423303946365,-10.675912625609298,-14.604623679519639
14.7,-9.239997927873025,-9.218966517941784,-10.003835564634105
14.75,-12.361354341636478,-5.711915253987897,-2.1179604398194796
14.8,-15.702701563505993,-4.106637617719053,-0.6640663405571358
14.85,-16.55632144329978,-3.5308586767936196,-3.1301026024693863
14.9,-18.80269314690975,-1.2008088539027628,-2.404127582381207
14.95,-20.495931732530252,0.6557300170306445,-0.08922707822337893
15.0,-20.184234180778617,1.1964312245256035,0.26293613864376136
15.05,-18.24326506188617,1.283329643067116,-0.8087961039729453
15.1,-15.28129781808122,1.3403102846528185,-1.5902497134867126
15.15,-12.057392180821541,0.5319832092698306,-1.3286910214133185
15.2,-9.818734441495726,-1.0986345979052399,-0.8117715990359993
15.25,-8.957874190971559,-2.2869272494842807,-1.066090500077908
15.3,-8.206073264505656,-2.8450263826427657,-2.3630184470137534
15.35,-7.900885236120749,-3.2418892564471786,-3.8566708817598245
15.4,-7.986997214417113,-3.3705322495394126,-4.512337749843247
15.45,-7.57190998471499,-3.300005452226524,-3.9193101933205137
15.5,-6.714984785740918,-3.0247556834433276,-2.40419193223465
15.55,-6.658488415174447,-2.9118788282881356,-1.6844161843456393
15.6,-6.948275845041981,-2.4328864602071807,-1.790836431753047
