Time [s],Flexion(-)/extension(+),Supination(+)/pronation(-)
0.0,-4.005354701137356,0.7872179222611201
0.002,-4.004594285036663,0.7875804124070697
0.004,-4.003800073449068,0.7879803016837522
0.006,-4.002917431332182,0.7884028451939094
0.008,-4.002032710062828,0.7888594902106988
0.01,-4.001078007800176,0.7893598076685009
0.012,-4.000083645208035,0.7899108009000456
0.014,-3.999006422679849,0.7905323920057017
0.016,-3.997923462713933,0.79117629088488
0.018,-3.996736227992285,0.7918580850484119
0.02,-3.995535417228067,0.7925961323347931
0.022,-3.994266707914838,0.7934272961464398
0.024,-3.992948721818378,0.7942796878495803
0.026,-3.991577177805766,0.7951855716091637
0.028,-3.990144718173632,0.7961590094276529
0.03,-3.9886479364919203,0.7971862396266989
0.032,-3.9871160198485422,0.7982406295783966
0.034,-3.985558071586953,0.7993663200713188
0.036,-3.9839351869903066,0.8005478231758615
0.038,-3.9822831288036578,0.8017312222232437
0.04,-3.980593896529649,0.8029515840253597
0.042,-3.978847028417351,0.8042247386848178
0.044,-3.977090355490218,0.8054907143114816
0.046,-3.975299123430539,0.8067869813776388
0.048,-3.973475016011667,0.8080638559661706
0.05,-3.9716587032751867,0.8093484220414859
0.052,-3.969789690237282,0.8106292145301885
0.054,-3.967926244037616,0.8118684004289921
0.056,-3.9659840113679077,0.8131381461645417
0.058,-3.964046049825055,0.8143256520510762
0.06,-3.9621113896719136,0.8154797160264972
0.062,-3.960210783236459,0.816601172310657
0.064,-3.958281875858767,0.8176468125154215
0.066,-3.956344808684199,0.818651367841102
0.068,-3.954436819492448,0.8195913705457563
0.07,-3.9525498721360544,0.8204521912375694
0.072,-3.9506553006348377,0.8212354422593066
0.074,-3.948775673121076,0.8219946230447884
0.076,-3.9468894265542325,0.8226604385407763
0.078,-3.9450626583825317,0.8232609580641906
0.08,-3.9432238814015137,0.8238387531134759
0.082,-3.941411695258692,0.8243413419725912
0.084,-3.939617382489972,0.8248055854501226
0.086,-3.937838253000586,0.825231447811551
0.088,-3.936119087477917,0.8256163029033206
0.09,-3.9344430360781204,0.8259417388456946
0.092,-3.9327772322108023,0.8262630654375406
0.094,-3.9311633133392907,0.8265729382997915
0.096,-3.9295510095996136,0.8268644322745108
0.098,-3.9280351961792768,0.8271453385695396
0.1,-3.9265324654000615,0.8274359550750533
0.102,-3.925064183760288,0.8277400419841763
0.104,-3.9236404276407306,0.8280649311248504
0.106,-3.92229941798553,0.8283916515957956
0.108,-3.920978852914703,0.8287440479139134
0.11,-3.9197023037973335,0.8291681658985319
0.112,-3.918496619746787,0.8295678098081648
0.114,-3.9173048766149403,0.8300384324846457
0.116,-3.9161893870184983,0.8305602143982553
0.118,-3.91511607984692,0.8311036591351243
0.12,-3.9140815929823094,0.8316915425509889
0.122,-3.9131259363995547,0.8323204108159227
0.124,-3.9122282128258576,0.8329849733086951
0.126,-3.9113246013741545,0.8337135183332903
0.128,-3.9104708018560674,0.8344870409988141
0.13,-3.909690656212615,0.8352988490405201
0.132,-3.9089479968571976,0.8361464902458284
0.134,-3.9082381487142084,0.837045670480543
0.136,-3.9075645490058792,0.8379490707701391
0.138,-3.9069442711738374,0.8388990808907342
0.14,-3.9063744907963285,0.8399025907616892
0.142,-3.905829006803153,0.8409315681900472
0.144,-3.905298696711757,0.8419515973145373
0.146,-3.904855058088705,0.8430155759300926
0.148,-3.9043898063782465,0.8441155518656052
0.15,-3.9040197541022414,0.84521905375534
0.152,-3.9036889485130755,0.846316627438958
0.154,-3.9033645146911327,0.8474284841073683
0.156,-3.90308721793181,0.8485972045965585
0.158,-3.9028531670806688,0.8497472866382075
0.16,-3.902677198099381,0.8509084356920723
0.162,-3.9025177197406067,0.8521075994141643
0.164,-3.902473076232068,0.8532411057230567
0.166,-3.9023787988566196,0.8544482870536418
0.168,-3.9023667528597996,0.85563178626889
0.17,-3.902412909784326,0.8568016072267512
0.172,-3.9024784077944794,0.8579943304283649
0.174,-3.9026188432033897,0.8591937800365914
0.176,-3.9027791026477217,0.8604045129608136
0.178,-3.9029992625958383,0.8615791020727647
0.18,-3.9032143297897215,0.8628095125980557
0.182,-3.903535110533977,0.8639734021065185
0.184,-3.9038278430761206,0.8651912552616071
0.186,-3.904213847035127,0.8663793019491762
0.188,-3.9046039806424497,0.867577471994699
0.19,-3.905019633278665,0.8687808106403668
0.192,-3.905455283205928,0.8699616372338418
0.194,-3.905922504987251,0.8711442571990394
0.196,-3.906432670135252,0.8723119257945212
0.198,-3.906918695849587,0.8734520692882263
0.2,-3.9074585372181696,0.8745794546179729
0.202,-3.907988518641695,0.8757040462885302
0.204,-3.9085157104474586,0.8767752629472423
0.206,-3.909058533907048,0.8778537456047131
0.208,-3.909592269954441,0.8788769074489428
0.21,-3.9101005706674576,0.8798888190231082
0.212,-3.910630566379782,0.8808249731080487
0.214,-3.911154637197049,0.8817333153324409
0.216,-3.91167124971481,0.8825876278167318
0.218,-3.912180581933837,0.8834048468032654
0.22,-3.912668641430942,0.8841734586236104
0.222,-3.913134150507808,0.884885364589203
0.224,-3.9135733652158327,0.885557170553337
0.226,-3.9140535042751003,0.8861682993195137
0.228,-3.914524550839299,0.8867117742501579
0.23,-3.914945647572047,0.8872241484038267
0.232,-3.9154130583363287,0.887650365308255
0.234,-3.9158460256880145,0.8880128688593425
0.236,-3.9162939188944126,0.8883084356528348
0.238,-3.916752309965557,0.8885540407848275
0.24,-3.9172269048071002,0.8887181313784009
0.242,-3.91770408648417,0.8888228336464482
0.244,-3.91823241938409,0.888818116523948
0.246,-3.918794746765943,0.8887289336281781
0.248,-3.9193883814951325,0.8885246044321355
0.25,-3.920041685900036,0.8882077849360639
0.252,-3.920740954144802,0.8877616778592444
0.254,-3.921533862169814,0.887149563282258
0.256,-3.9224103789305578,0.8863302663078874
0.258,-3.923403708932447,0.885341473156243
0.26,-3.9244974162345594,0.88407574573873
0.262,-3.925737074648077,0.8825264166090485
0.264,-3.927126299935314,0.8806622610222791
0.266,-3.9287127975804315,0.878395540347891
0.268,-3.930487965216905,0.8757099114697451
0.27,-3.9324948165343496,0.872523973184917
0.272,-3.934771702050327,0.8687603430133114
0.274,-3.9373225205827875,0.8643428397632387
0.276,-3.940221557374967,0.8591808326238674
0.278,-3.943489788286719,0.8531920806387896
0.28,-3.947137157225298,0.8462757180217442
0.282,-3.9512796719763843,0.8383348223814335
0.284,-3.9558924103883624,0.8292511153791015
0.286,-3.9611070035743845,0.8188875750561909
0.288,-3.9669367702693346,0.8071473061090014
0.29,-3.973484800886348,0.7938849567107817
0.292,-3.980804234060573,0.7789625308980116
0.294,-3.988983571752447,0.7622552012046003
0.296,-3.998138356407126,0.7436043241477864
0.298,-4.008278898355767,0.7229101003654231
0.3,-4.019593117366058,0.6999883732391388
0.302,-4.032152028487255,0.6747162579231996
0.304,-4.046100172422193,0.6469410803640027
0.306,-4.061565881215722,0.6165759328733355
0.308,-4.078654293609571,0.5834645088013857
0.31,-4.097558887094493,0.5474979297895624
0.312,-4.118381455991262,0.5086005884344442
0.314,-4.1413198367737865,0.466686767767094
0.316,-4.166579863494825,0.4217113006414163
0.318,-4.194302455042731,0.3735912929912818
0.32,-4.2247052125113855,0.32237316304531244
0.322,-4.257972816532949,0.268038176476257
0.324,-4.294351970810318,0.21067976729087082
0.326,-4.334074665079275,0.15034267238730029
0.328,-4.377372820140184,0.087201190475575
0.33,-4.424482692047421,0.02136137018368655
0.332,-4.475665038312247,-0.0469528664017557
0.334,-4.531196356908168,-0.11749407095957613
0.336,-4.591330306679499,-0.18993760046127933
0.338,-4.656327731661591,-0.2639899702709144
0.34,-4.726493473108645,-0.33927806997758275
0.342,-4.802099561762078,-0.41541434287885604
0.344,-4.88341770971017,-0.491893784234154
0.346,-4.970766104599406,-0.5683229024191018
0.348,-5.064386935195583,-0.6441717718790886
0.35,-5.164573043592657,-0.7188976772631097
0.352,-5.271603569757099,-0.7920025821316533
0.354,-5.385732491394371,-0.8629233150190089
0.356,-5.5071995789928465,-0.9311170281920974
0.358,-5.636294843047701,-0.9961165265152868
0.36,-5.77325564573161,-1.057326874550143
0.362,-5.91827224564546,-1.1143100950006475
0.364,-6.071622791025092,-1.16662270618892
0.366,-6.233476950522597,-1.2138247448324277
0.368,-6.4040640102109,-1.2555561255617689
0.37,-6.583486108778896,-1.2915308294078918
0.372,-6.772021728678979,-1.3214366592831854
0.374,-6.969770402576631,-1.3451585036892832
0.376,-7.176939046781973,-1.3625103154311833
0.378,-7.393596002835037,-1.3734941784434491
0.38,-7.619897064280791,-1.3781027393299794
0.382,-7.856046483514667,-1.3764135852780226
0.384,-8.102054718938714,-1.368623378887964
0.386,-8.358116112154462,-1.3549332339598934
0.388,-8.624264103330678,-1.3356065264085821
0.39,-8.900639761870357,-1.3110493231392608
0.392,-9.187358991837085,-1.2815603944327576
0.394,-9.48451440048452,-1.2476578019841924
0.396,-9.792184402051468,-1.209751488003499
0.398,-10.110484193271388,-1.1683611056385825
0.4,-10.439413237435302,-1.1239781600385883
0.402,-10.779178696894377,-1.0770821662445627
0.404,-11.129786962677164,-1.0282690382217927
0.406,-11.491319181418573,-0.977944345016924
0.408,-11.86386109537184,-0.9266403054217326
0.41,-12.247421286440833,-0.8747431520958766
0.412,-12.64214468444841,-0.8227056754641136
0.414,-13.047956372737065,-0.7709123978683295
0.416,-13.464962026169077,-0.7196003288382828
0.418,-13.8931396454282,-0.6691318932709208
0.42,-14.332459583656025,-0.619649165802444
0.422,-14.782917401636197,-0.5713457169975125
0.424,-15.244433673979746,-0.5243013624185721
0.426,-15.716950389176265,-0.4785389385445378
0.428,-16.200371197581394,-0.43409127445107415
0.43,-16.694527037089202,-0.39084041245485995
0.432,-17.199288060292048,-0.34864480585415963
0.434,-17.714504841669196,-0.3073790269544613
0.436,-18.23991811350096,-0.2667795713355498
0.438,-18.77532528885756,-0.22661225417155756
0.44,-19.320417067289018,-0.1865485456205629
0.442,-19.874919872821714,-0.14622943311456055
0.444,-20.438544828122176,-0.10530351175486091
0.446,-21.01087394213048,-0.06333260487930988
0.448,-21.591589469412735,-0.01987867421676334
0.45,-22.18031599253661,0.02549142101683958
0.452,-22.776589718156135,0.07333829181853234
0.454,-23.38001944778823,0.12411689918858343
0.456,-23.990185025036848,0.1783755525168341
0.458,-24.606565311608616,0.23670022558209794
0.46,-25.22875359009699,0.299712672958983
0.462,-25.85626645910847,0.3679541520196246
0.464,-26.48860933959092,0.4420765663503037
0.466,-27.125346354190686,0.5227510173370167
0.468,-27.765959203944277,0.6106203758824977
0.47,-28.410033759513013,0.7064240343446757
0.472,-29.057080565973234,0.8108478975160183
0.474,-29.706696553033293,0.9245974054309953
0.476,-30.358366006153606,1.048514081866504
0.478,-31.011802420843157,1.1832879863110577
0.48,-31.666520558067866,1.3297825608383356
0.482,-32.32218482519958,1.4888045920800241
0.484,-32.97848177370616,1.6611738004769954
0.486,-33.63506448624312,1.847694153155646
0.488,-34.29166337095252,2.0492991979453095
0.49,-34.94806198655611,2.2668239880411836
0.492,-35.60402952323288,2.5011037345867453
0.494,-36.259410643870694,2.7530372150741385
0.496,-36.91403666113808,3.023482162647057
0.498,-37.56780621268225,3.31331477417444
0.5,-38.220670323599606,3.623378652728358
0.502,-38.87259670784652,3.9545274357842892
0.504,-39.5235901768907,4.307541638983047
0.506,-40.17368810430753,4.683257550854443
0.508,-40.822966830888966,5.082343726530433
0.51,-41.47149665123776,5.505659044016493
0.512,-42.11938897847616,5.953804810957538
0.514,-42.7668912444052,6.427392763028666
0.516,-43.41403723470242,6.9270799792420865
0.518,-44.06107953754123,7.453393774275117
0.52,-44.70823855422565,8.006742018828144
0.522,-45.35569713493743,8.587546181581459
0.524,-46.003667073008046,9.196210836059377
0.526,-46.65237708420473,9.832901135962578
0.528,-47.302102128964584,10.497832980560617
0.53,-47.953049121440536,11.191115452145423
0.532,-48.605453211222795,11.912760146576208
0.534,-49.2595324160448,12.662728038864483
0.536,-49.9155490431125,13.440836988757596
0.538,-50.5737211098399,14.2468836799356
0.54,-51.23421618598108,15.080550878417105
0.542,-51.89731198521615,15.941441351053687
0.544,-52.563213085058884,16.829058011115453
0.546,-53.23210678298024,17.74294996546848
0.548,-53.904146225007956,18.682384555135613
0.55,-54.57959697464592,19.646740134882812
0.552,-55.25856148322347,20.63525242388047
0.554,-55.9412374168164,21.647093947467607
0.556,-56.62781269679792,22.681398066766636
0.558,-57.31839865023356,23.737234409754407
0.56,-58.013122896432755,24.813589588790112
0.562,-58.712125316141005,25.909441177780398
0.564,-59.415455226046014,27.0237834495909
0.566,-60.12324784061652,28.155389747070384
0.568,-60.83548753915339,29.303150127403406
0.57,-61.552200733173706,30.465868855606928
0.572,-62.273427668679595,31.642221687064595
0.574,-62.9990704196684,32.830984342766506
0.576,-63.72900628288502,34.03081064393286
0.578,-64.46314449236306,35.240316045405514
0.58,-65.20127291198365,36.458115530815654
0.582,-65.94317402380761,37.68271180157079
0.584,-66.68856757314946,38.9126358805405
0.586,-67.43703383859146,40.146350723056386
0.588,-68.18821055011726,41.382346381984696
0.59,-68.94169598125775,42.61899873578559
0.592,-69.69687413057376,43.85476188560023
0.594,-70.45323180213319,45.08798381879247
0.596,-71.21016430634873,46.31705752211523
0.598,-71.9669837301741,47.540402949042324
0.6,-72.72295764660929,48.756428552249126
0.602,-73.47742618867082,49.96357187682121
0.604,-74.22962108110265,51.16030635714869
0.606,-74.97879509409083,52.345175466002935
0.608,-75.72417653077267,53.516831168793956
0.61,-76.46510046240087,54.67394333758608
0.612,-77.20078345856197,55.81536130564906
0.614,-77.93063493583443,56.93994403719655
0.616,-78.6540137819674,58.046775293925755
0.618,-79.37043196701015,59.135022550494
0.62,-80.07942314880177,60.20398886706596
0.622,-80.78061653546891,61.25317722431709
0.624,-81.4738043125955,62.282123823300104
0.626,-82.15883625214974,63.29070836512476
0.628,-82.8357412420122,64.27876436103016
0.63,-83.50456489120697,65.24643120642646
0.632,-84.16562627607344,66.19383612357946
0.634,-84.81929053522394,67.12138399894408
0.636,-85.46600180970081,68.02939106084524
0.638,-86.1064037848333,68.91844378786031
0.64,-86.74126487353327,69.7890921653067
0.642,-87.37135748817882,70.64192311841272
0.644,-87.99756858656667,71.47762375127184
0.646,-88.62086132236038,72.29678476307066
0.648,-89.2422732325614,73.09991703515549
0.65,-89.86276262858493,73.88754232900872
0.652,-90.48336418629982,74.6600464155696
0.654,-91.10501597843616,75.41760265915511
0.656,-91.72859617520463,76.16029613286867
0.658,-92.35485414187592,76.88795112889207
0.66,-92.9844714145483,77.60021002928583
0.662,-93.61783426593766,78.29645234447419
0.664,-94.25528402933082,78.97571000067879
0.666,-94.89676623624177,79.63686184185902
0.668,-95.54209279922118,80.27848429689578
0.67,-96.19077341631201,80.89875924861137
0.672,-96.84202926077926,81.49580242736442
0.674,-97.49469138446187,82.067200036792
0.676,-98.14745214116434,82.61060761506134
0.678,-98.7986227623023,83.12330031570124
0.68,-99.44619715272087,83.60249756003836
0.682,-100.08797522441891,84.0453056687552
0.684,-100.72152891457338,84.44867774377417
0.686,-101.34427676357596,84.80980293711858
0.688,-101.9534348261433,85.1257566530715
0.69,-102.54615982240398,85.39375925599737
0.692,-103.1196553096138,85.61134063715191
0.694,-103.67105407559067,85.77616266588647
0.696,-104.19759190684735,85.88617026851391
0.698,-104.69668300116784,85.9398909574153
0.7,-105.16583364355557,85.93590148572862
0.702,-105.60287199692893,85.87331304089516
0.704,-106.00582500744984,85.7517705553898
0.706,-106.37299159503077,85.5712541961924
0.708,-106.70293416397334,85.33224469729748
0.71,-106.99456938601716,85.03559480199353
0.712,-107.24717718707826,84.68266539167897
0.714,-107.4601029807879,84.27515098987107
0.716,-107.6332577027762,83.81515047577952
0.718,-107.76657431867574,83.30515080901888
0.72,-107.86041179081954,82.74781965769394
0.722,-107.91517290929619,82.14618143691082
0.724,-107.9315216959334,81.50340232688103
0.726,-107.9103643395552,80.82300091290362
0.728,-107.85252639046429,80.10843026812718
0.73,-107.7591720922086,79.36335960332613
0.732,-107.63136833641333,78.59142880591712
0.734,-107.47037244196844,77.79638186507283
0.736,-107.27744216948516,76.98197033439324
0.738,-107.05388467178803,76.15170422678459
0.74,-106.80106580167983,75.30932671370704
0.742,-106.52037438969941,74.45827118919384
0.744,-106.21320437362402,73.60183741225306
0.746,-105.88096908549737,72.74317277003551
0.748,-105.5251489646034,71.88536057203531
0.75,-105.14720625627417,71.0311254198447
0.752,-104.74865034169784,70.18300050314521
0.754,-104.3310027285955,69.34334110885496
0.756,-103.89583040346555,68.51405429917637
0.758,-103.44468551117102,67.69699916020225
0.76,-102.97918832287118,66.89363266299245
0.762,-102.50092598298397,66.10499638327849
0.764,-102.01153814099949,65.33202444471027
0.766,-101.5126150189736,64.57535015735417
0.768,-101.00581191743476,63.83510275701597
0.77,-100.49266875426729,63.11137202599933
0.772,-99.97477781485264,62.40384476771042
0.774,-99.45364779815817,61.712017733385736
0.776,-98.93077782960155,61.03518206800366
0.778,-98.40748791032874,60.372348798730464
0.78,-97.88517335243921,59.72243790652197
0.782,-97.36500717374089,59.0841780435505
0.784,-96.84811079594067,58.45622605461724
0.786,-96.33552838235788,57.83711025729542
0.788,-95.82810862721571,57.22536062279058
0.79,-95.32665743471958,56.61943843400875
0.792,-94.83176992257282,56.017825262111806
0.794,-94.34398224030011,55.41908775607781
0.796,-93.86366952326271,54.821777092219065
0.798,-93.39108015307247,54.22446932533642
0.8,-92.9263504400998,53.62606171308977
0.802,-92.46955164182049,53.0253144374984
0.804,-92.02057945596012,52.42119123761689
0.806,-91.57929543074653,51.81294881248371
0.808,-91.14547347206629,51.19976964763957
0.81,-90.71883574762585,50.58106567795466
0.812,-90.29902304334047,49.95645763454783
0.814,-89.88569281072283,49.32549228198243
0.816,-89.47841733555279,48.688195645896045
0.818,-89.07681115670651,48.044473226054116
0.82,-88.68047905739171,47.39422885009592
0.822,-88.2889934255818,46.73782460973489
0.824,-87.90202964839123,46.075432624352395
0.826,-87.51920492460059,45.407405069827036
0.828,-87.14021253079756,44.73406842546837
0.83,-86.76481378817776,44.055979931663906
0.832,-86.39277229578943,43.37349932867419
0.834,-86.02392083663916,42.687174191077304
0.836,-85.65812453989713,41.997500249589656
0.838,-85.29531279736102,41.30502963013949
0.84,-84.93549804456231,40.61013452237695
0.842,-84.57865160887086,39.91336825483408
0.844,-84.22484153698176,39.21507410520473
0.846,-83.87419020798094,38.51570239980893
0.848,-83.52683313300071,37.815670547873495
0.85,-83.18296311927621,37.115269354655965
0.852,-82.8427453661965,36.414829403222114
0.854,-82.506423560872,35.714532825697006
0.856,-82.1742466805231,35.01473488479775
0.858,-81.84644817045961,34.315631758909554
0.86,-81.52330976359134,33.617435496994304
0.862,-81.20512997552645,32.920373100367264
0.864,-80.89216921197321,32.224662505559934
0.866,-80.58469103848496,31.53055494053052
0.868,-80.28301001928443,30.83839920355346
0.87,-79.98740597610924,30.148323283139803
0.872,-79.69810892863092,29.460713831840714
0.874,-79.41539864505393,28.775798019068237
0.876,-79.13949552004499,28.094153164494298
0.878,-78.87068766633197,27.41589128397134
0.88,-78.6091591289675,26.741599456849347
0.882,-78.35511027757931,26.07155059078544
0.884,-78.10869637423573,25.40629270719165
0.886,-77.87008216806103,24.746040982780922
0.888,-77.63947426004681,24.091335882652164
