Time [s],Flexion(-)/extension(+),Supination(+)/pronation(-)
0.0,-6.149142788983281,-4.344815263232353
0.002,-6.149163358429119,-4.344401736075308
0.004,-6.149143470917287,-4.343930065040547
0.006,-6.149167074429394,-4.34343757195147
0.008,-6.149167790952443,-4.342898035447363
0.01,-6.14918916879829,-4.342347658262139
0.012,-6.1492013088921,-4.341730590109097
0.014,-6.149243268085077,-4.34105824868295
0.016,-6.14929459210769,-4.34035341371731
0.018,-6.149345975810854,-4.339595690710505
0.02,-6.149404333108675,-4.3388125568168086
0.022,-6.14950140806976,-4.337960934980332
0.024,-6.149589504197648,-4.337092908088194
0.026,-6.149726237525553,-4.336140544775271
0.028,-6.149831444315184,-4.335174774941257
0.03,-6.149999399430391,-4.334153974195951
0.032,-6.150179087356943,-4.333109087347115
0.034,-6.150389660786449,-4.332048703620911
0.036,-6.150612083111463,-4.330909192114742
0.038,-6.150859550946103,-4.329771771249801
0.04,-6.151150651133377,-4.3286119116936295
0.042,-6.151450529410418,-4.3274597734398785
0.044,-6.1517912942011845,-4.3262603387316405
0.046,-6.152167960596815,-4.325091175448041
0.048,-6.1525449927021825,-4.323893122583027
0.05,-6.152972537485537,-4.322732545006139
0.052,-6.15340169096024,-4.321587370671086
0.054,-6.1538555344526475,-4.320433907818418
0.056,-6.1543384852069085,-4.319292691337982
0.058,-6.154844180756362,-4.3181672495944845
0.06,-6.155345260883546,-4.3170680264526835
0.062,-6.155870644899987,-4.316015826233564
0.064,-6.156375744077734,-4.314980822772524
0.066,-6.156921919073764,-4.31399318719904
0.068,-6.157467616494683,-4.313034449859601
0.07,-6.158015410409826,-4.312109653795501
0.072,-6.158530457061662,-4.311200115578175
0.074,-6.1590597461340915,-4.310335458286581
0.076,-6.159580038881983,-4.309505080760723
0.078,-6.160065792966691,-4.308676950883156
0.08,-6.1605523595878955,-4.307862609805842
0.082,-6.1610000917500205,-4.307077750206494
0.084,-6.161422036485336,-4.306283659208952
0.086,-6.161830605417405,-4.30552439544499
0.088,-6.162216290038839,-4.304759694246241
0.09,-6.162566709961517,-4.304003463540035
0.092,-6.162897661741406,-4.30322697387098
0.094,-6.163176299337922,-4.302441097801038
0.096,-6.163451807513572,-4.3016660141566305
0.098,-6.163687382627454,-4.300903669543251
0.1,-6.16389051179268,-4.300107999956041
0.102,-6.164075525262258,-4.299304557940156
0.104,-6.164209870364655,-4.298498626114686
0.106,-6.1643200188911775,-4.297662806304099
0.108,-6.164409213903018,-4.296840221410589
0.11,-6.164457933265027,-4.295987734376802
0.112,-6.164486842451964,-4.295131364030389
0.114,-6.164497755879272,-4.294292423525378
0.116,-6.164478717786202,-4.293432795703872
0.118,-6.164440658599527,-4.292565800782551
0.12,-6.164382278385279,-4.291695105999823
0.122,-6.164297457950546,-4.290870274274582
0.124,-6.164154007320862,-4.29000902499842
0.126,-6.164042297453049,-4.289236973516282
0.128,-6.16389359175012,-4.288449168875107
0.13,-6.16371528831948,-4.287697698805419
0.132,-6.163533806822394,-4.286996566992573
0.134,-6.1633005292877785,-4.286324759205563
0.136,-6.163092391228436,-4.285729754478809
0.138,-6.1628624893732775,-4.285193774310074
0.14,-6.162575196244021,-4.2846998766798485
0.142,-6.162303516266066,-4.284322065523202
0.144,-6.1619918156259015,-4.283979806971725
0.146,-6.161663026099074,-4.283707853790139
0.148,-6.161375397892841,-4.283555582167201
0.15,-6.1610468601234665,-4.283493382683977
0.152,-6.160715074835296,-4.283513071599209
0.154,-6.160360534646886,-4.283624769516859
0.156,-6.159988211540921,-4.2838287023936195
0.158,-6.159627900985736,-4.28413204834076
0.16,-6.1592567383492085,-4.284547326393871
0.162,-6.158896571134952,-4.285037881415475
0.164,-6.158544808290662,-4.285611451848686
0.166,-6.158179105280092,-4.286247398356426
0.168,-6.157830235259199,-4.286986484453789
0.17,-6.157464645876442,-4.287743106580619
0.172,-6.157136536483943,-4.288602924782075
0.174,-6.156808539080595,-4.289502320510053
0.176,-6.15650511232588,-4.290431456005628
0.178,-6.156203939496649,-4.291372895410537
0.18,-6.155947216877848,-4.292355410591273
0.182,-6.155671938592057,-4.293324543497973
0.184,-6.1554529202990285,-4.294273992418936
0.186,-6.1552148522101024,-4.29521143254474
0.188,-6.15502461365313,-4.296093319197297
0.19,-6.154841568443181,-4.296935059074377
0.192,-6.154686208025757,-4.297698580430249
0.194,-6.154501555606517,-4.298368638252482
0.196,-6.154383684266461,-4.2989433888156405
0.198,-6.1542772094423785,-4.299415508808698
0.2,-6.1541432405493754,-4.299725654799902
0.202,-6.154060553830058,-4.29988948112558
0.204,-6.153946119121645,-4.29986591414665
0.206,-6.153893930029592,-4.299690556389031
0.208,-6.153803671938843,-4.299314762707901
0.21,-6.153717787858265,-4.298702759613707
0.212,-6.153646537455169,-4.297853469439847
0.214,-6.153587232060425,-4.296777077399339
0.216,-6.153530896418074,-4.295416759776749
0.218,-6.153472442781903,-4.293786106859591
0.22,-6.153431137689554,-4.291867282830071
0.222,-6.1534056268667,-4.289648932742152
0.224,-6.1533737303067975,-4.287089034059437
0.226,-6.153391402574733,-4.284189584651751
0.228,-6.153461274662054,-4.280962345547832
0.23,-6.153556428259329,-4.277325557108453
0.232,-6.1537397670135245,-4.27335037813582
0.234,-6.153986147144008,-4.268964142787573
0.236,-6.154368032040763,-4.264203112931733
0.238,-6.154868336464481,-4.259006678619365
0.24,-6.155567896134601,-4.253392360680885
0.242,-6.156437210190313,-4.2473483934082585
0.244,-6.15754745420515,-4.240845456488129
0.246,-6.158962674390612,-4.233930352180844
0.248,-6.160730017983667,-4.2265086845507485
0.25,-6.162886651373714,-4.21860116450708
0.252,-6.165537021485894,-4.210223794264887
0.254,-6.168739655250018,-4.201349500207113
0.256,-6.172551266110148,-4.191935897838243
0.258,-6.177075962560171,-4.182006989074186
0.26,-6.18241413441812,-4.171522617076218
0.262,-6.18873065953325,-4.160502911759103
0.264,-6.195994741248182,-4.148867929788113
0.266,-6.204487518269444,-4.136642339586806
0.268,-6.2142178102173595,-4.123762797928278
0.27,-6.225406512758338,-4.110240419714667
0.272,-6.238131536398607,-4.096019229009423
0.274,-6.252592718865042,-4.081083561500942
0.276,-6.268895028854597,-4.065366886036773
0.278,-6.2872503834710125,-4.048869701647918
0.28,-6.307801678162528,-4.031514954294759
0.282,-6.3306995536515975,-4.013322219134214
0.284,-6.356157606239475,-3.994176897215995
0.286,-6.384349930988805,-3.97413230874269
0.288,-6.415430436763526,-3.953080543914912
0.29,-6.449640440705511,-3.9310747868315032
0.292,-6.487101082165776,-3.908038778802799
0.294,-6.528017595566778,-3.88396272772401
0.296,-6.572553754270466,-3.858900745629024
0.298,-6.6209341030931315,-3.832815739907564
0.3,-6.6732592689638475,-3.8057742136872754
0.302,-6.7297851607933,-3.7778268477048007
0.304,-6.7905821621583655,-3.7490206826166523
0.306,-6.855877474888282,-3.7194452912488956
0.308,-6.925776689189106,-3.689241908968357
0.31,-7.0004845651436,-3.6585680635470563
0.312,-7.080029939815385,-3.62751655811772
0.314,-7.164599740558123,-3.5962911605080774
0.316,-7.25430538197818,-3.565202390589076
0.318,-7.349187356442765,-3.534376914379784
0.32,-7.449390159279709,-3.5041453574247052
0.322,-7.554985753535236,-3.4748415642479538
0.324,-7.665986874708303,-3.4467581686945485
0.326,-7.782481268756289,-3.4202610331580945
0.328,-7.904491404980707,-3.3957189053487404
0.33,-8.032095346669232,-3.373579366540984
0.332,-8.165222028713261,-3.3541923460514824
0.334,-8.303942152025758,-3.3380688124548286
0.336,-8.448243585496105,-3.325628251660908
0.338,-8.59812995631811,-3.317351191123773
0.34,-8.75352690247394,-3.313719553256978
0.342,-8.914466378679652,-3.3151957064190416
0.344,-9.080902035743629,-3.3222819025001615
0.346,-9.252800904257256,-3.335431403899812
0.348,-9.430090436443532,-3.355095812221381
0.35,-9.61274543137253,-3.3817501588556778
0.352,-9.800735562409047,-3.415811882084941
0.354,-9.993976295507055,-3.45770187486423
0.356,-10.192393730082875,-3.507789079370812
0.358,-10.395994190849098,-3.566435212107491
0.36,-10.604667599670702,-3.6339674205761843
0.362,-10.818328566495543,-3.7106093371146915
0.364,-11.037001314167187,-3.7967004328330862
0.366,-11.260479511703235,-3.8923867046635126
0.368,-11.48880128050155,-3.9978424444736755
0.37,-11.72184514706716,-4.113158834377881
0.372,-11.959582902263417,-4.238412943694353
0.374,-12.2018528063181,-4.373600915564375
0.376,-12.448660598719789,-4.518773428533067
0.378,-12.699803907561835,-4.673749312021692
0.38,-12.955321798940515,-4.838501423238895
0.382,-13.215020408149604,-5.01278335165756
0.384,-13.478841364398471,-5.196451611143129
0.386,-13.746683622288664,-5.389249209095575
0.388,-14.018384902614084,-5.59084486583995
0.39,-14.293884861162523,-5.800988401210639
0.392,-14.573030179182057,-6.019277575877971
0.394,-14.855704202309424,-6.245329722260288
0.396,-15.141808713734745,-6.478759606838043
0.398,-15.431162796655155,-6.71907014612975
0.4,-15.72364353863316,-6.965869759907623
0.402,-16.01910193565007,-7.218653873591691
0.404,-16.317445222485045,-7.476899494691822
0.406,-16.618516053508262,-7.74013039217363
0.408,-16.92215485245643,-8.007850058626891
0.41,-17.22825091213,-8.279486336673887
0.412,-17.536659292716177,-8.554527133990455
0.414,-17.84726335297796,-8.83248284567281
0.416,-18.159930760701407,-9.112753360965064
0.418,-18.474553901991055,-9.394873996620833
0.42,-18.79101143787405,-9.678268146627124
0.422,-19.109284367524964,-9.962508845687388
0.424,-19.42915912541866,-10.246987952739547
0.426,-19.750649967678857,-10.531337302372977
0.428,-20.073631304770075,-10.815025721502154
0.43,-20.39806970104861,-11.097640589627334
0.432,-20.723927876676324,-11.378763178222487
0.434,-21.05116291226949,-11.657961106375936
0.436,-21.37973840882476,-11.934944343481517
0.438,-21.709644791929364,-12.209344267841443
0.44,-22.040902262101465,-12.480896970013244
0.442,-22.373463151586172,-12.749331657073936
0.444,-22.70739126901183,-13.014467689328695
0.446,-23.042714589345277,-13.276189438821506
0.448,-23.379451557077434,-13.534285327435182
0.45,-23.71763895538218,-13.788766041926943
0.452,-24.05732568310875,-14.039592936427802
0.454,-24.398622118337887,-14.286823043899242
0.456,-24.741523054495666,-14.530524067249427
0.458,-25.08616170150834,-14.77081865512783
0.46,-25.43261854296897,-15.007896136504222
0.462,-25.780977421337685,-15.242040739977423
0.464,-26.13129056606795,-15.473413134932086
0.466,-26.483736044656315,-15.702384525708313
0.468,-26.838378309997143,-15.929263436539388
0.47,-27.195364579832695,-16.15445056941559
0.472,-27.554828301119656,-16.378319987140127
0.474,-27.916881266086577,-16.601232606164903
0.476,-28.281674466847644,-16.823720657779024
0.478,-28.64940301795984,-17.046145189021217
0.48,-29.02018675161257,-17.269007934775026
0.482,-29.39420033594151,-17.49269877565934
0.484,-29.77161141580697,-17.71772161049985
0.486,-30.152624221016154,-17.94451173523299
0.488,-30.537422329154115,-18.1735119127609
0.49,-30.926147621712385,-18.405151655270434
0.492,-31.319036641223605,-18.639793346554058
0.494,-31.71623788707475,-18.877896727521037
0.496,-32.11796769759359,-19.119815633872633
0.498,-32.524395652301145,-19.365910732265295
0.5,-32.9356461024296,-19.616556418873603
0.502,-33.35189886048527,-19.87206218503268
0.504,-33.773352698451106,-20.132737126109863
0.506,-34.200059712672385,-20.398801971489284
0.508,-34.63215349414338,-20.670535934492936
0.51,-35.06977164835597,-20.94819366422625
0.512,-35.512896989026224,-21.231958748096083
0.514,-35.96164645575305,-21.521985234314617
0.516,-36.415973629939614,-21.81840173431984
0.518,-36.87591427644967,-22.121346851666285
0.52,-37.34137918412627,-22.430832126101873
0.522,-37.81232741578514,-22.74694051522225
0.524,-38.28865724300751,-23.069581924702216
0.526,-38.77021817609721,-23.39879575814996
0.528,-39.256913203116135,-23.73445343414328
0.53,-39.74839226208793,-24.076443918843356
0.532,-40.24461254393243,-24.42453368287305
0.534,-40.745248583769936,-24.778537870888314
0.536,-41.25008738864432,-25.138169040775665
0.538,-41.758763887929014,-25.503117165628908
0.54,-42.27106149381698,-25.873000297606435
0.542,-42.78661552940549,-26.247489297364574
0.544,-43.30508678283827,-26.625994040339105
0.546,-43.82618276869789,-27.008193245840147
0.548,-44.34948984489571,-27.393461147471253
0.55,-44.87469568402708,-27.781354131907097
0.552,-45.40141674421784,-28.171216587213873
0.554,-45.92930995889535,-28.562524043495557
0.556,-46.45795136587455,-28.954723546669857
0.558,-46.98707594452473,-29.347176734861076
0.56,-47.51623223510187,-29.739351598018715
0.562,-48.04508792573026,-30.130678293514002
0.564,-48.573265531694936,-30.520661700809317
0.566,-49.100443946187625,-30.908741389333386
0.568,-49.62622113263678,-31.29456092388776
0.57,-50.15036176788086,-31.677562575756088
0.572,-50.67245836498515,-32.05752705340438
0.574,-51.19218889156536,-32.43419862145241
0.576,-51.70931920279896,-32.80723373209897
0.578,-52.2235416757034,-33.17656671419474
0.58,-52.734541393583775,-33.542210125117336
0.582,-53.24213450878016,-33.90399947380096
0.584,-53.74607032204771,-34.26218481677568
0.586,-54.2461987030432,-34.616893348088006
0.588,-54.74234920723524,-34.968333176222345
0.59,-55.23443461718998,-35.31684377944346
0.592,-55.72236086512198,-35.66280192593019
0.594,-56.20611998272943,-36.00663712667145
0.596,-56.6857234654591,-36.34880708661382
0.598,-57.16131569999025,-36.689854921722656
0.6,-57.633024648247435,-37.03027405419453
0.602,-58.10101537961269,-37.37065159672907
0.604,-58.56550617658809,-37.71150473999884
0.606,-59.0269169593701,-38.05326328741368
0.608,-59.48556090643495,-38.39654530675339
0.61,-59.94188348010588,-38.741772163593446
0.612,-60.39641006945416,-39.08922177222897
0.614,-60.84961568924855,-39.43930977096532
0.616,-61.3021097935518,-39.79229059229668
0.618,-61.75457538108354,-40.148234539892826
0.62,-62.20763940730196,-40.50716826021893
0.622,-62.66194544880189,-40.86915620104443
0.624,-63.118239842024856,-41.23394311925331
0.626,-63.577269164936155,-41.6013221681441
0.628,-64.03971128941369,-41.97089942681585
0.63,-64.50629957997758,-42.342127883657874
0.632,-64.97771073199598,-42.714517616341986
0.634,-65.45461886134053,-43.08736878515423
0.636,-65.93765204500444,-43.45999534957995
0.638,-66.42740285271493,-43.831580536482456
0.64,-66.92445028631761,-44.20117189473661
0.642,-67.42915411785741,-44.56806501123067
0.644,-67.94201268509414,-44.93124592653858
0.646,-68.46337384562018,-45.289811567905794
0.648,-68.99347231443309,-45.64297812368714
0.65,-69.53248266703828,-45.98987604405323
0.652,-70.08048984564282,-46.32962324520656
0.654,-70.63759246646131,-46.661574708724395
0.656,-71.203649528159,-46.985040212236036
0.658,-71.7785632276241,-47.2995996433971
0.66,-72.3620987863844,-47.604602541308466
0.662,-72.95404225322717,-47.89979925666936
0.664,-73.55401443192561,-48.18493780041853
0.666,-74.16157793836727,-48.45990865629224
0.668,-74.77631764186216,-48.724693285876945
0.67,-75.39769620956181,-48.979347199575955
0.672,-76.02515687555585,-49.22411932004296
0.674,-76.65815108105593,-49.4593135475157
0.676,-77.29596446840112,-49.685249147242025
0.678,-77.93808248958014,-49.90237654512821
0.68,-78.58380509180495,-50.11118192806176
0.682,-79.23244215163324,-50.312298158954086
0.684,-79.88334936626279,-50.50616326005548
0.686,-80.53577146556037,-50.693403653492815
0.688,-81.18906425021166,-50.874611057979365
0.69,-81.84255510409218,-51.050357098543884
0.692,-82.49550141684229,-51.221123776635494
0.694,-83.14725893652928,-51.38744227292239
0.696,-83.79709335023676,-51.54960713516018
0.698,-84.44434466893814,-51.708157221371565
0.7,-85.08834900519075,-51.86316829795194
0.702,-85.72841885228317,-52.01499066867048
0.704,-86.36384051202556,-52.16359118253486
0.706,-86.99394970209786,-52.30911901982572
0.708,-87.61802689069033,-52.451341164919455
0.71,-88.23544761827583,-52.590185465363
0.712,-88.8454864219691,-52.72541027568559
0.714,-89.44744388633104,-52.85659180568258
0.716,-90.04068851121257,-52.9834494809275
0.718,-90.62448429702023,-53.10538940111589
0.72,-91.19815907786727,-53.22188348260921
0.722,-91.76103945678902,-53.33247519104063
0.724,-92.31241864425047,-53.436360916221645
0.726,-92.85164605167613,-53.53301621462988
0.728,-93.37802670063108,-53.621720982056715
0.73,-93.89097227053782,-53.70184301261549
0.732,-94.38983507021734,-53.77264388533276
0.734,-94.87403095977035,-53.833577417213796
0.736,-95.34298830554788,-53.88394238506195
0.738,-95.79605164108841,-53.92301111739118
0.74,-96.23289776609647,-53.950391099498056
0.742,-96.6529424585904,-53.96537826212044
0.744,-97.05571067533468,-53.96753109928094
0.746,-97.44090868131424,-53.95642143343224
0.748,-97.80809375793518,-53.93154473724546
0.75,-98.15705189891113,-53.89261486211307
0.752,-98.48739165523598,-53.83910707216369
0.754,-98.79902937075859,-53.770884280818315
0.756,-99.09168171722105,-53.687611018620366
0.758,-99.36530483614254,-53.58897699647075
0.76,-99.61972852256862,-53.474807528679705
0.762,-99.85492310885247,-53.34481845114092
0.764,-100.07090529587298,-53.19888057456938
0.766,-100.26768774526064,-53.03675886980164
0.768,-100.445338999219,-52.85833742077864
0.77,-100.60398735814748,-52.66336493355892
0.772,-100.74374827688847,-52.45165837318984
0.774,-100.8647216848019,-52.223125085494424
0.776,-100.96718588464887,-51.97748114565062
0.778,-101.05135348170231,-51.71465313340348
0.78,-101.11748698973403,-51.434405936782454
0.782,-101.16586761051377,-51.13664063807129
0.784,-101.19681266569954,-50.82108012831928
0.786,-101.21071043942521,-50.4877239222164
0.788,-101.20789397757656,-50.13639772015366
0.79,-101.18880219608185,-49.76704298236765
0.792,-101.15382283180936,-49.37952784175817
0.794,-101.10346167030721,-48.97387274678781
0.796,-101.03826789874093,-48.550140172429906
0.798,-100.95868539910613,-48.10832299879411
0.8,-100.86530468728088,-47.64857947334305
0.802,-100.75874034243589,-47.17112159307867
0.804,-100.6395860689874,-46.67605720203351
0.806,-100.50853288490723,-46.163837396447455
0.808,-100.3662134644887,-45.63471149075196
0.81,-100.21344613915969,-45.0891986258933
0.812,-100.05086086277896,-44.527697113220526
0.814,-99.8793386348453,-43.9507554271005
0.816,-99.69964293395162,-43.358912726696694
0.818,-99.51260729765723,-42.75282229207869
0.82,-99.31914174137866,-42.13320117653867
0.822,-99.12013094406805,-41.50061980213576
0.824,-98.91642871911165,-40.85576994075107
0.826,-98.70904791308824,-40.1993532520546
0.828,-98.4988594701359,-39.53209731284857
0.83,-98.28691934715714,-38.85461582796797
0.832,-98.0741404848505,-38.16763438469692
0.834,-97.8615581814907,-37.47170214984306
0.836,-97.65008112096494,-36.7675125621303
0.838,-97.44077213998855,-36.05553569787234
0.84,-97.23451171811216,-35.336355964699855
0.842,-97.03236789470924,-34.61045676456161
0.844,-96.83519693907645,-33.87827623477704
0.846,-96.64398624420707,-33.14025424140123
0.848,-96.4595598246598,-32.39671297752957
0.85,-96.28284725151588,-31.64805416384815
0.852,-96.11458625025547,-30.894515276637797
0.854,-95.95557826807004,-30.136428869761467
0.856,-95.80654502768681,-29.37399081711781
0.858,-95.66813459834027,-28.60756765164694
0.86,-95.54093143511068,-27.837278235444156
0.862,-95.42547114703004,-27.06335358250459
0.864,-95.32223239784066,-26.286223110316755
0.866,-95.23156527102223,-25.50593682977066
0.868,-95.1538267361184,-24.722819804817746
0.87,-95.08918256406662,-23.937171506194257
0.872,-95.0378896478,-23.14929567170528
0.874,-95.00002065639417,-22.359545778471652
0.876,-94.97559485995797,-21.568240647673377
0.878,-94.96464522948735,-20.775792432211773
0.88,-94.96704367031401,-19.982598781752714
