Time [s],Anterior(+)/posterior(-) tilt,Lateral tilt left(-)/right(+),Rotation left(+)/right(-)
0.0,0.7691779241817001,-1.0238579338954874,-0.09926251427184501
0.002,0.7689234951249727,-1.0240791642102913,-0.09941961836945049
0.004,0.7686831535764653,-1.0243142681048891,-0.09958867602964089
0.006,0.7683869346530081,-1.0245608520847813,-0.09976627790165589
0.008,0.768099954856265,-1.0248244501804429,-0.09994898346724339
0.01,0.767791798006374,-1.0250994061894538,-0.10015049392151247
0.012,0.767463988806757,-1.0253950813236121,-0.10035371063271087
0.014,0.7671164966817942,-1.0257052092444738,-0.10056716728813864
0.016,0.7667691646273761,-1.026050127823161,-0.10079601283836957
0.018,0.7663958987143982,-1.0263949396627265,-0.10101969540477501
0.02,0.7659933828070343,-1.0267551803416488,-0.10127072648000508
0.022,0.765577640823511,-1.0271506840880633,-0.10155249592866296
0.024,0.7651528806730102,-1.0275521641217567,-0.10180352097866173
0.026,0.7646956765082006,-1.0279723201014517,-0.10209040672990445
0.028,0.7642597636878465,-1.0284191560083389,-0.10236703990598685
0.03,0.7637607771544791,-1.0288988615852561,-0.1026675935541998
0.032,0.7632624309350041,-1.0293645868320949,-0.10297153584273554
0.034,0.7627455681258412,-1.0298548575986568,-0.10328234207605044
0.036,0.7622081530457276,-1.0303837155866236,-0.10360680237469662
0.038,0.7616757698066868,-1.0308912134635422,-0.10391588144647508
0.04,0.7611276208690613,-1.0314297376853465,-0.10422325810629976
0.042,0.7605569691131069,-1.0319935382763705,-0.10455797153001675
0.044,0.7599729315514073,-1.0325363601980093,-0.10487729647867962
0.046,0.759391119024655,-1.0331064119809537,-0.10519151095593991
0.048,0.7588194451434116,-1.0336890567106605,-0.10548351264830665
0.05,0.7581932516513262,-1.034263254022949,-0.10580114323819124
0.052,0.7576134666141278,-1.0348520884604195,-0.10607094546598461
0.054,0.7570005519756933,-1.035452173486411,-0.10635442928036261
0.056,0.7563666127076334,-1.0360415864841321,-0.10662253087423894
0.058,0.7557347461919832,-1.0366305276187844,-0.10687867194086857
0.06,0.7551281898015463,-1.0372420764137233,-0.10710408916200428
0.062,0.7544937617495862,-1.0378396618007777,-0.10731070828604651
0.064,0.7538561402893551,-1.0384400667391545,-0.10750198551073688
0.066,0.7532293427850651,-1.0390350908482964,-0.10764712247313786
0.068,0.7525740135390133,-1.0396131293309825,-0.1077871436453635
0.07,0.7519478647491449,-1.0402059570053008,-0.10786741670592558
0.072,0.7513135963274742,-1.0407749414606973,-0.10794598186701465
0.074,0.7506689308181768,-1.0413590180512045,-0.10797842062300395
0.076,0.7499927283591458,-1.0419432013066472,-0.10799208185890123
0.078,0.7493317873633817,-1.0425045465120455,-0.10795620777715353
0.08,0.7486803893691082,-1.0430914598254506,-0.10787424683190745
0.082,0.7479986992092852,-1.0436338533833065,-0.10777350218029258
0.084,0.7473134871911014,-1.0441916144513668,-0.10762834520755542
0.086,0.7466040311562105,-1.0447482193128845,-0.10744734033138983
0.088,0.7458834756871281,-1.0453247807521122,-0.10723901295911267
0.09,0.7451504512643629,-1.0458720830862178,-0.10698115086233627
0.092,0.7443948457660629,-1.046421582069821,-0.10668060382732641
0.094,0.7436209904037435,-1.0469766304195365,-0.10633737875945502
0.096,0.7428494829029917,-1.0475057458751518,-0.10594118976389394
0.098,0.7420230124886802,-1.0480657032286351,-0.10552964520771378
0.1,0.7412055068097998,-1.04860271583777,-0.10505662512925877
0.102,0.740347445938056,-1.0491395149604918,-0.1045596978769347
0.104,0.7394714553548034,-1.0496782349882245,-0.10402007928234816
0.106,0.7385710875812331,-1.050204939789443,-0.10342410196079026
0.108,0.7376289279808643,-1.0507419521809584,-0.1028110542874166
0.11,0.7366603540815494,-1.0512940119721788,-0.10213141476478464
0.112,0.7356681502108638,-1.0518144200623796,-0.10143126402765794
0.114,0.7346701107475379,-1.0523362341310527,-0.10066111822693807
0.116,0.7336279502830776,-1.0528675902098539,-0.09986192292086189
0.118,0.7325338781300772,-1.0534021917571619,-0.09903884121239347
0.12,0.7314264654613314,-1.053928042204062,-0.09816110135155687
0.122,0.7302913045267817,-1.0544630704118494,-0.09724408555365069
0.124,0.7291296760078964,-1.0549863593797166,-0.09627925556384692
0.126,0.7279275357095971,-1.0555090708373787,-0.09528027828002644
0.128,0.7267074655940066,-1.0560403197990227,-0.09423007137969266
0.13,0.7254420375568987,-1.0565747702965906,-0.09315765162136573
0.132,0.7241473771223105,-1.0571013672276126,-0.09204427601718931
0.134,0.7228568152627205,-1.0576189559497235,-0.09087964967650841
0.136,0.7215112042519134,-1.0581532801360953,-0.08968428818428294
0.138,0.7201471092107908,-1.0586727896579393,-0.08845134245741484
0.14,0.7187580510200627,-1.059205149030822,-0.08718768711475432
0.142,0.7173368687996433,-1.0597367612630142,-0.08588986550053787
0.144,0.7158934238407495,-1.0602565907450048,-0.0845476367273869
0.146,0.7144215474207606,-1.0607966336106702,-0.08317981484960456
0.148,0.7129371842067769,-1.061338704029512,-0.08177611906346449
0.15,0.7114258196910667,-1.0618595372163722,-0.0803416790006735
0.152,0.7098959274043247,-1.0624173584587902,-0.07888164232073216
0.154,0.708365459017592,-1.062939578808959,-0.07738744125439165
0.156,0.7067866444591472,-1.0634956290251605,-0.07586761890600867
0.158,0.7052109895102343,-1.064050655231242,-0.07431706788247969
0.16,0.7036420774024013,-1.0646041641144244,-0.07272553316613793
0.162,0.7020088331001907,-1.0651890281794478,-0.07112717250860903
0.164,0.7003882471551722,-1.0657584610430064,-0.06949464812945708
0.166,0.6987556847691043,-1.066340720404592,-0.06782626482556756
0.168,0.697113955610498,-1.0669354022502446,-0.06612203687162169
0.17,0.6954668486867321,-1.0675429333410067,-0.06439729339502893
0.172,0.6938023097752222,-1.0681669832428382,-0.06264694672532004
0.174,0.6921323103795229,-1.0688062095769537,-0.06084708036950557
0.176,0.6904425426614901,-1.0694554880486804,-0.059028423902691966
0.178,0.6887695303797855,-1.070123442277944,-0.05716708279180405
0.18,0.6870530399942991,-1.0708150242200156,-0.05528013022782926
0.182,0.6853471685902532,-1.0715048984995048,-0.05335560619071105
0.184,0.6836330792987946,-1.0722404483255346,-0.051369600172519646
0.186,0.6818789555026296,-1.0729864136651697,-0.049369939461756863
0.188,0.6801384515845027,-1.0737473622811282,-0.04731733865875117
0.19,0.6783539770541217,-1.0745343501189124,-0.04521521613315216
0.192,0.6765843774487286,-1.075350002514593,-0.043061860184552395
0.194,0.6747692061273596,-1.076181129036358,-0.04084874642161764
0.196,0.6729523934892387,-1.0770311872009435,-0.0385878160035722
0.198,0.6711372349575612,-1.0779159287615134,-0.03624833386588588
0.2,0.6692421794637823,-1.078827947684093,-0.033883232579846954
0.202,0.6673432815176201,-1.0797598161627386,-0.031405426222769844
0.204,0.665405655852249,-1.080727797743493,-0.02886615266098088
0.206,0.6634338109640546,-1.081707582591036,-0.026268812371492697
0.208,0.6614324563054679,-1.0827107386798607,-0.02355535172157458
0.21,0.6593653728773612,-1.0837496874922676,-0.02077017012080855
0.212,0.6572812666707754,-1.0848158492642415,-0.01787570080564059
0.214,0.6551193579413477,-1.0859097575703167,-0.014880477004111445
0.216,0.6528986292145292,-1.0870245404712504,-0.011775966298064799
0.218,0.6506420404648663,-1.0881827576392993,-0.008538258616486176
0.22,0.6483132905209477,-1.0893579010541965,-0.005177599886114555
0.222,0.6459030316944591,-1.0905833922599975,-0.0016700833875246577
0.224,0.6434440910433116,-1.0918350941898267,0.0019774606754488985
0.226,0.6408933281859966,-1.0931023116089944,0.005792354299180245
0.228,0.6382670037615394,-1.094415310841377,0.00978142783212197
0.23,0.6355318953172336,-1.0957645110921581,0.013941267760668005
0.232,0.632710903512833,-1.0971487974974312,0.018294070578654925
0.234,0.6297780852038916,-1.0985820914090945,0.022839836795384323
0.236,0.6267680287952146,-1.1000284870939636,0.02761101692422307
0.238,0.6236397043367619,-1.1015261727234602,0.032614435498576816
0.24,0.6203939813456218,-1.10308874272041,0.03784667924328434
0.242,0.6170436133781066,-1.1046702014463168,0.043336771508583935
0.244,0.6135686595182536,-1.1062878780254202,0.04910009818395119
0.246,0.6099775709418092,-1.1079829907291756,0.05512639879833433
0.248,0.6062345405824592,-1.1097118920424238,0.06139689686858373
0.25,0.6023949570182247,-1.111494766677588,0.06799867145236495
0.252,0.5983979173629375,-1.1133203538154923,0.07488904672751066
0.254,0.5942851500663119,-1.115214600603537,0.08209191745508677
0.256,0.5900011755134301,-1.117179347298863,0.08957483420165104
0.258,0.5855977032199265,-1.1191937974862458,0.09741808040626823
0.26,0.5810469111177022,-1.1212535221175612,0.10557381061225841
0.262,0.5763583339788447,-1.1234331972725025,0.11405060561371942
0.264,0.5715275958744689,-1.125650543309614,0.12285185384672201
0.266,0.5665367133463453,-1.1279703379581338,0.1319912029628935
0.268,0.5614190180548991,-1.1303408903164167,0.14146524589217607
0.27,0.5561297245031698,-1.1328112626552156,0.1512620391843184
0.272,0.5506936594316219,-1.1353842577078088,0.1613867230065
0.274,0.5451264244817003,-1.1380321681002037,0.1718460791939809
0.276,0.5393769620326752,-1.14078020841035,0.18261794312713026
0.278,0.5334879078144792,-1.1436420187357546,0.19369378914603247
0.28,0.527425109550752,-1.1465895522097733,0.20510774488749162
0.282,0.5212188972863857,-1.1496753530621895,0.2168068907333226
0.284,0.5148218298205618,-1.1528656989557653,0.22879803231078238
0.286,0.5082852034228744,-1.1561827943224456,0.24111023833822343
0.288,0.5015590851041424,-1.1596225388747963,0.2536922816164791
0.29,0.4946629735013844,-1.1631869987420917,0.2665680039912821
0.292,0.4875986522746986,-1.1669080134202017,0.27970499872241955
0.294,0.4803333559392304,-1.1707622116462761,0.293111856908062
0.296,0.4728721001693567,-1.1747590911244294,0.3067953552113024
0.298,0.46521605849351505,-1.17891668692682,0.3207298249847052
0.3,0.45739194063088723,-1.1832274200663035,0.3349341896115976
0.302,0.4493359720361835,-1.1876934640670722,0.3493690703294696
0.304,0.44108323891471507,-1.1923403231529714,0.3640738048150453
0.306,0.4326345141677294,-1.197148362235079,0.37901759231658516
0.308,0.4239629511563767,-1.2021245900594804,0.3942107159068954
0.31,0.41506172555087545,-1.207293335813308,0.4096446584496224
0.312,0.40596244217064226,-1.212640375451719,0.42532455110243417
0.314,0.396642402649525,-1.2181729265411962,0.44124349562370574
0.316,0.3871212920369999,-1.2238967897978832,0.45742886508957886
0.318,0.37732268219060905,-1.2298006939275863,0.47383797360181373
0.32,0.36734822275613194,-1.235909779034267,0.49049304237963987
0.322,0.3571330042151429,-1.2422015014373151,0.5073906634514376
0.324,0.34671403615964386,-1.2487115389779342,0.5245529031890049
0.326,0.33606456033898413,-1.255418260984294,0.5419406157388638
0.328,0.3252217490193031,-1.2623261616473422,0.5596017139386188
0.33,0.3141346562417484,-1.2694507049385793,0.5774983748122949
0.332,0.30284007589941025,-1.2767604092033695,0.5956461260478254
0.334,0.29133419028711216,-1.284286131641575,0.6140416075826938
0.336,0.2796105551357815,-1.2920377535279421,0.6326915832095369
0.338,0.2676947399038695,-1.2999982306511637,0.6515942551778856
0.34,0.2555633736027679,-1.3081851136353295,0.6707396163948718
0.342,0.2432235994727952,-1.3165706086640891,0.6901393834286503
0.344,0.23071392126406903,-1.3251816040065358,0.7097954850482687
0.346,0.21797022566699586,-1.334036917223284,0.7296786867060576
0.348,0.20504506213556248,-1.3430966612201316,0.7498352234489967
0.35,0.19194354824319002,-1.3523794078566904,0.7702241177730091
0.352,0.1786293683463564,-1.3619260840019063,0.7908572345266083
0.354,0.16514651453005003,-1.371670902037261,0.8117432069294023
0.356,0.1514424688799441,-1.3816978515021878,0.8328495957876361
0.358,0.13758297240010953,-1.3919468543205757,0.8542122670962069
0.36,0.12349970299955439,-1.4024466440708854,0.8758055600846496
0.362,0.1092490250185649,-1.4131897298958043,0.8976381751290238
0.364,0.09479761159417639,-1.4241969254012834,0.9197080903206689
0.366,0.08016511053369704,-1.4354477660117533,0.9420053298989743
0.368,0.06530242162769141,-1.4469771092061166,0.964536734591379
0.37,0.050274847691389096,-1.458732088868963,0.9873140912528472
0.372,0.035013228764114855,-1.4707898918614972,1.0103102099257881
0.374,0.01952054736226509,-1.483106294260802,1.033533778408732
0.376,0.003809596943019671,-1.4956903516743438,1.0569895575961006
0.378,-0.012153353273347694,-1.50853032974854,1.0806523662135703
0.38,-0.028346965160568244,-1.521627727149851,1.1045628730852142
0.382,-0.044833582724654604,-1.5350020626444658,1.1286742988600875
0.384,-0.061561976127689925,-1.5486412065679984,1.1530266456377818
0.386,-0.0785974828620339,-1.562519735497969,1.1775799266400775
0.388,-0.09593199124014046,-1.5766468601254386,1.2023690153070377
0.39,-0.11362231193108362,-1.5910181719354077,1.2273471734886032
0.392,-0.13164196626465519,-1.6056352084023968,1.2525517599774854
0.394,-0.15002811912286892,-1.6204721161294877,1.2779572841421007
0.396,-0.168808112291262,-1.6354988483026438,1.3035654784089559
0.398,-0.18800545048612138,-1.6507665961826616,1.329373028214155
0.4,-0.20758339395697215,-1.6661697273525111,1.355356602164417
0.402,-0.22763076512637884,-1.6817601214617037,1.3815375808427481
0.404,-0.24813439214671762,-1.6974979837314972,1.4078822681578422
0.406,-0.2691275548486134,-1.7133895994819863,1.4344065042527891
0.408,-0.2905974471260096,-1.7293673241024459,1.4610905804632628
0.41,-0.31258466392233797,-1.7454694832681927,1.4879321961501764
0.412,-0.33509864805035156,-1.7616484796924698,1.5149323873841427
0.414,-0.3581346938131272,-1.7778604602244146,1.5420635235890876
0.416,-0.3817414183740472,-1.7941300849867987,1.5693211468547654
0.418,-0.405885662896192,-1.8104051748390373,1.5967382302844866
0.42,-0.430592129774231,-1.8266829653459271,1.6242717650917362
0.422,-0.4558941720818132,-1.8429175654370182,1.6519132626985322
0.424,-0.4817152649528817,-1.8590954330596279,1.679695037703824
0.426,-0.5081226545370344,-1.875249557524232,1.7076106931508435
0.428,-0.5350996277247835,-1.891291045324436,1.7356327137552108
0.43,-0.5626196639158236,-1.9072290676561503,1.763787368671341
0.432,-0.5906952964392937,-1.9230495704235624,1.7920972855323367
0.434,-0.6192696172330734,-1.9387380166636667,1.8205569291944352
0.436,-0.6483841312392111,-1.9542639045655783,1.8491682291597409
0.438,-0.6779970526789194,-1.969615404918955,1.8779765604258298
0.44,-0.7080805243976216,-1.9847887563423046,1.9069559847919015
0.442,-0.7386090663085169,-1.9997817554702753,1.936180276547512
0.444,-0.7696065079993697,-2.0145717851847555,1.9656167947462444
0.446,-0.8009799042396697,-2.029120617594058,1.9953366107089134
0.448,-0.8327283062350942,-2.0434449034402267,2.0253489090831374
0.45,-0.8648391769050952,-2.0575514159810617,2.0556679379138583
0.452,-0.8972379242201828,-2.0714256162527214,2.0863647630561553
0.454,-0.9299652933135207,-2.0850321992821383,2.1173996072190606
0.456,-0.9629200462970003,-2.0984000747893563,2.1488773764367486
0.458,-0.9960967662327653,-2.111492783446602,2.180775289531612
0.46,-1.0294709560928454,-2.1243178498374755,2.213138224680918
0.462,-1.0629932803383018,-2.1368914514589834,2.2459922026861694
0.464,-1.0966669854742217,-2.149150880483246,2.2793590372898347
0.466,-1.1304440279142718,-2.161163547678263,2.313248538566656
0.468,-1.1642766755017606,-2.1728698190115696,2.347699289734844
0.47,-1.19815410467268,-2.1842661908083083,2.38269901183331
0.472,-1.232108603672363,-2.195378537465484,2.4182832156932275
0.474,-1.2660377472028561,-2.2061793726358667,2.4544502887981032
0.476,-1.299985424680028,-2.2166450356338645,2.491186794162393
0.478,-1.333900910166653,-2.2267916663679177,2.528507405868538
0.48,-1.3677881716375462,-2.2365923661236478,2.56640722987923
0.482,-1.4016340488950165,-2.2460469731698898,2.604868021981671
0.484,-1.435452215155534,-2.255135523467145,2.643895797201265
0.486,-1.4692201793320694,-2.2638521449323847,2.6834578985707815
0.488,-1.5029350329809255,-2.2721616316587356,2.7235609112515764
0.49,-1.5366317607204765,-2.280100674910785,2.764167983918784
0.492,-1.5702712623428872,-2.2875974212791705,2.80525819928183
0.494,-1.6038657988600666,-2.294658536584235,2.846847903974766
0.496,-1.6374530762097665,-2.3012857184149578,2.88888225708473
0.498,-1.671031824214766,-2.3074464289165006,2.931341597036594
0.5,-1.7045995096886868,-2.3130912006151116,2.974251166825313
0.502,-1.7381500680197561,-2.318268983790149,3.0175860406309005
0.504,-1.7717538685431524,-2.3229041716610332,3.0612899968279637
0.506,-1.805356059424792,-2.326994056535735,3.105411840898652
0.508,-1.8390092933649698,-2.330516188300651,3.1499312159793202
0.51,-1.8726916928876023,-2.3334643628713136,3.1948240931230214
0.512,-1.9064345696955307,-2.3357751327026666,3.2401345878960983
0.514,-1.9402389013566297,-2.337485055761466,3.285823679077117
0.516,-1.9740856059873164,-2.338534244590794,3.331919749191055
0.518,-2.0080177257486294,-2.338912065226186,3.378448226740624
0.52,-2.0419636199433437,-2.338569019257575,3.4254174538970186
0.522,-2.0759992354615804,-2.337536170364675,3.472858370996073
0.524,-2.1100692329374096,-2.335751332633627,3.520765639145384
0.526,-2.1441645960885394,-2.333177817015747,3.5691917952540733
0.528,-2.1783043441583607,-2.3298221969257464,3.6181568969981717
0.53,-2.212417608628847,-2.3256896028628176,3.6676867888111055
0.532,-2.2465373700104827,-2.3206971468635755,3.7178032274047847
0.534,-2.280587937812419,-2.314887396912947,3.7685331303728216
0.536,-2.314594327760051,-2.3082220668959095,3.8199059653337843
0.538,-2.3485134295713648,-2.3007070731694355,3.871923454673933
0.54,-2.3823238445221957,-2.292296372190213,3.924616302001707
0.542,-2.415972628940681,-2.28302234087009,3.978016795679511
0.544,-2.449458376452253,-2.272857879352314,4.032120579041469
0.546,-2.4827651772014216,-2.2618379795121615,4.086908790050361
0.548,-2.515815818807734,-2.249969475692821,4.142418340298502
0.55,-2.548608440629158,-2.237225694701803,4.198640561583019
0.552,-2.581125450031623,-2.223649518032157,4.255526335877457
0.554,-2.6132974267733453,-2.209258407099268,4.313116313954625
0.556,-2.645128117179298,-2.194071128586636,4.371381134240692
0.558,-2.6765998721629063,-2.1781163057675785,4.43027103995443
0.56,-2.7076705808763264,-2.1614307290069488,4.489795689439436
0.562,-2.7383083768086647,-2.1440459751946754,4.549911178457706
0.564,-2.7685026030832263,-2.1259934556033766,4.610596395381026
0.566,-2.798236335419617,-2.1073227007470727,4.671819802554427
0.568,-2.827457372274923,-2.0880847366706328,4.7335490968450165
0.57,-2.8561399677845487,-2.0682830859095285,4.795776038413861
0.572,-2.884351324219998,-2.0480198424352936,4.858452978557711
0.574,-2.9119577775432535,-2.027282636794858,4.921584758211201
0.576,-2.9389877765646397,-2.006169148439774,4.985120305619693
0.578,-2.9654749210186027,-1.9846832152893008,5.049065083621006
0.58,-2.991316866580806,-1.9628859393336635,5.113412911341965
0.582,-3.0165462149733253,-1.9408050743482206,5.178140065045442
0.584,-3.041169091675648,-1.9185269239955955,5.243236079129213
0.586,-3.0651379833799703,-1.8960569689016606,5.308728297935989
0.588,-3.088474786844359,-1.8734196611691372,5.374602299481767
0.59,-3.1111433632728835,-1.8506727752764658,5.440864818178556
0.592,-3.133193082710488,-1.8278396712197036,5.507535170932703
0.594,-3.154553194510033,-1.8049710794207572,5.5746230820925735
0.596,-3.175266915180633,-1.7820387504282857,5.642161259993665
0.598,-3.1953292161050646,-1.7591479309304674,5.710159148007468
0.6,-3.2147418175688336,-1.7362503876213247,5.778636473604328
0.602,-3.2335232915135745,-1.7134033824849666,5.847630354971177
0.604,-3.2516498840673793,-1.6906366013531964,5.917159063208224
