Time [s],Flexion(-)/extension(+),Abduction(+)/adduction(-),Internal(-)/external(+) rotation
0.0,0.9434675201809876,1.3613142771030666,2.393491171378477
0.025,0.950246230252619,1.4029003525189454,2.3524383278150744
0.05,0.9673593878186267,1.4562377276965883,2.2984819763067956
0.075,0.9958640629262229,1.5119003022737474,2.2488807304672176
0.1,1.0242411304603938,1.5686708997526448,2.2045807989231894
0.125,1.037883475719587,1.6300742771533654,2.1711687064205893
0.15,1.040206633908589,1.697181246285235,2.1554782252552847
0.175,1.0484720524393136,1.7600962543853984,2.1149103188316354
0.2,1.0693136485489159,1.8092867473168432,2.027626664645314
0.225,1.0713790594208181,1.848380431092575,2.010871644186116
0.25,1.0563323731898044,1.8806899078012154,2.0433425666394887
0.275,1.034594143429351,1.9120711309164187,2.062347758943644
0.3,1.0117049426145814,1.949333495354434,2.0504082347642063
0.325,0.987103700299374,1.994816891668754,2.0208487819563117
0.35,0.9604241575974468,2.0447934828785583,1.9935961728560954
0.375,0.9342692124743924,2.096518019128512,1.9764498031104345
0.4,0.9045684339701744,2.1471549999115727,1.9671336883338735
0.425,0.8675005144358994,2.194575541809609,1.9633831493547134
0.45,0.8217425633432335,2.2381193261313697,1.9660910667531275
0.475,0.7619768482605417,2.274277624812225,1.9722721573201074
0.5,0.686990040700337,2.301460513774977,1.9824139528917029
0.525,0.60444226375506,2.321471932640411,2.0083039779014804
0.55,0.5253318816162589,2.333418149583937,2.062880856336283
0.575,0.45298672163270165,2.3340650752488625,2.139968379502647
0.6,0.3774309639098425,2.327044385229008,2.218115601138444
0.625,0.29541820954487225,2.3239795586655427,2.2813252131073054
0.65,0.21952996680239006,2.330368744412657,2.326767454040305
0.675,0.16795562005522607,2.3393879950134333,2.3705142626923315
0.7,0.14733893041631652,2.3462993689907994,2.423055304574482
0.725,0.15069928467158972,2.35273604789685,2.4720151400494834
0.75,0.16329476450021949,2.3597394832814356,2.493667903412037
0.775,0.17119561886660678,2.3677109088293595,2.4791005203210648
0.8,0.16474292615137312,2.3749951261103983,2.4521239352553055
0.825,0.14450882957456326,2.3836836001529806,2.445798781031081
0.85,0.1275754116035579,2.4015288135641044,2.463892145268055
0.875,0.1272144561949281,2.419142961022322,2.485669741702562
0.9,0.1331295024159686,2.4254923521978893,2.496561946647271
0.925,0.14422709536100567,2.4281533351022255,2.487766132922546
0.95,0.1636460677255159,2.4333284693495405,2.4615928845632657
0.975,0.19431354327487102,2.4328875078232226,2.428985315344483
1.0,0.23459085443743233,2.4287583803481514,2.399446427357727
1.025,0.2710081674874236,2.426927051691946,2.3870979572040927
1.05,0.29001435035936474,2.4080229186691584,2.4057647157915856
1.075,0.2860362226477752,2.355161917172375,2.4538239900663408
1.1,0.2656340781765917,2.2838774881868824,2.502725679171675
1.125,0.24024690206688654,2.2013466070702514,2.509134995614164
1.15,0.2139193724361849,2.1081827940522637,2.4741480467963815
1.175,0.17742489734624114,2.0130346053822046,2.4435619609544927
1.2,0.11417546950126711,1.9226516758329235,2.4397259344131283
1.225,0.02705079132730494,1.8229673013845198,2.4477771057116233
1.25,-0.0893706761716892,1.6950918770738541,2.4710712483723944
1.275,-0.23224395397640707,1.5444025241250237,2.521212037241701
1.3,-0.3914085253791126,1.3939136923980509,2.5942158890890954
1.325,-0.5783472533667345,1.264410480681541,2.666894213598146
1.35,-0.8155194572825994,1.1671062670372367,2.722911103567944
1.375,-1.0981407509288057,1.0973188584917661,2.745295066129815
1.4,-1.4077109665433698,1.0431321225800276,2.6973765468332234
1.425,-1.7373849976688291,0.9911576514913567,2.5670900972679678
1.45,-2.111637191584396,0.9346391201936478,2.3910744358894553
1.475,-2.56262127565071,0.8756978689523041,2.2235173802356796
1.5,-3.1162716743736065,0.8066106145216047,2.0769496151600526
1.525,-3.8006570027385083,0.7055783043876013,1.9231622378467959
1.55,-4.619690186317871,0.5414433255721666,1.7290596884987883
1.575,-5.539287293824524,0.28775735462012814,1.4670114961468406
1.6,-6.501268152510098,-0.05616098136946166,1.1566934074132131
1.625,-7.424628154857501,-0.478752453806019,0.8667821779899546
1.65,-8.245930791184852,-0.9789976908673822,0.7033927366699357
1.675,-8.9504266798453,-1.5564399339711814,0.7207981080681749
1.7,-9.521027500624303,-2.212488480131516,0.9008413190022743
1.725,-9.905966290047175,-2.9335054128155553,1.2282587708512502
1.75,-10.12028444232967,-3.6717589957235246,1.7067471176546483
1.775,-10.34334925946948,-4.382414843842137,2.2591706625044896
1.8,-10.780524830686062,-5.01856601812159,2.6883344386616903
1.825,-11.628783356702614,-5.560678486678265,2.8522742315993437
1.85,-12.949006879761134,-6.04980514203483,2.773054479987838
1.875,-14.527369575635154,-6.524740026695397,2.584173721462268
1.9,-15.890363565167041,-6.9735269038059995,2.4654096919128543
1.925,-16.597847824587426,-7.31430913173107,2.5836280641904388
1.95,-16.64122273406317,-7.459730365311653,2.903398653619384
1.975,-16.316192118326583,-7.443440321949627,3.294157328030754
2.0,-15.766365674417406,-7.393699130493629,3.83093741888356
2.025,-14.891917253690373,-7.404481649586706,4.674609915362527
2.05,-13.673770969131011,-7.436668765168702,5.732349725474653
2.075,-12.328708254794575,-7.359628359050414,6.808897599482207
2.1,-11.059519873716406,-7.092566501227735,7.946225875916808
2.125,-9.907315689397556,-6.6572814906078674,9.314923768126679
2.15,-8.831395184844089,-6.100557956664577,10.871144378125523
2.175,-7.810362034557454,-5.414352531239646,12.279047327935913
2.2,-6.868575352453887,-4.618901212205801,13.223392788461684
2.225,-6.020286089989153,-3.8446136296936326,13.712382916268979
2.25,-5.223655017118624,-3.2311494223156583,13.919179254843332
2.275,-4.4726147478662455,-2.7993970114457967,13.901224421243853
2.3,-3.893891816154677,-2.455257573932308,13.623534479308931
2.325,-3.6371809467104725,-2.1033246556135965,13.068357472769987
2.35,-3.6833525219830223,-1.7426444222684438,12.316543429808481
2.375,-3.9238276306512603,-1.432915938716736,11.57153131000347
2.4,-4.339521074811226,-1.2151561942077964,11.031243617518435
2.425,-4.915271671932619,-1.0692690332001358,10.716918493386885
2.45,-5.592706541300231,-0.9354197079252775,10.497014192182517
2.475,-6.3323497802135185,-0.779571326894273,10.268330900152378
2.5,-7.10072611219614,-0.6421530340427882,10.013263899257879
2.525,-7.843349734004068,-0.5981709024685418,9.762529441617795
2.55,-8.49297037664331,-0.6706265892853248,9.481881788465442
2.575,-9.050706319953976,-0.8255705878736993,9.091938413349693
2.6,-9.580145411598833,-1.0293890270358896,8.58130817362947
2.625,-10.163343319754983,-1.285904340018107,7.983369849747246
2.65,-10.875506930809777,-1.6372839626256843,7.334628258725454
2.675,-11.750727790104802,-2.1229412819862867,6.699488673993095
2.7,-12.74908737599821,-2.7166315679638036,6.087011870275784
2.725,-13.764727185606846,-3.32625671501012,5.4021192337027735
2.75,-14.723557861567812,-3.8456960557495417,4.5152088979490355
2.775,-15.617514118328657,-4.193906648659758,3.379222355927642
2.8,-16.447717359238986,-4.3550402807364,2.1005162985531984
2.825,-17.167377593395486,-4.366250329417896,0.8569699388872694
2.85,-17.71331386539021,-4.2700822609712645,-0.18512941979074873
2.875,-18.065304909237554,-4.109976012358666,-0.9307323085251332
2.9,-18.21449264923273,-3.9287553580210153,-1.403596223422536
2.925,-18.135242222382914,-3.7476525266424474,-1.7088664723317548
2.95,-17.819752843239865,-3.5726849432089582,-1.983538780439963
2.975,-17.283224057404166,-3.384172792304299,-2.4098055841041415
3.0,-16.552248660057366,-3.1256334884562538,-3.2260996319606865
3.025,-15.714076195364951,-2.7603598532811353,-4.573540488557503
3.05,-14.841984402534907,-2.3488811966482244,-6.295386474512532
3.075,-13.926198869165269,-1.982556145612795,-7.947412244197701
3.1,-12.809493053250527,-1.6610650591430758,-8.941434245549065
3.125,-11.300742796300721,-1.2959303795044739,-8.835013264791533
3.15,-9.500736246744337,-0.8834220708784352,-7.475850906075052
3.175,-7.846441338965384,-0.6232846796539102,-4.797573747400694
3.2,-6.6897184868300865,-0.7949043472544023,-1.1326149846693994
3.225,-5.979445472972209,-1.5101443245720771,2.273053130893682
3.25,-5.650675224697437,-2.6169913927662996,4.198096653874405
3.275,-5.570732802239424,-3.80998547154181,4.581716138248248
3.3,-5.512645141756634,-4.789601214681982,4.557563783083294
3.325,-5.377891483976938,-5.411493543628756,5.106486900404049
3.35,-5.172975690527244,-5.802043941740929,6.095683949721539
3.375,-4.940250394242758,-6.244961774888988,6.890404342379512
3.4,-4.695129727583884,-6.903751282089837,7.375350081002223
3.425,-4.404440172982187,-7.69270339445908,7.8431928143617915
3.45,-4.115076089339709,-8.41818376759869,8.582223693713894
3.475,-3.885150928810882,-9.012680234154736,9.61246002065569
3.5,-3.682868083886802,-9.561577285127894,10.65887049629654
3.525,-3.631621865156643,-10.110021524088571,11.276528861347598
3.55,-3.922381352103641,-10.583476425619644,11.138104741631507
3.575,-4.501864303363739,-10.892441374398135,10.325284171461469
3.6,-5.12750428281882,-11.017907370029624,9.350216865150568
3.625,-5.786794197122478,-11.028967279178811,8.918538626633943
3.65,-6.673495638298953,-11.016746286058828,9.40273612652521
3.675,-7.9378971304751005,-11.032795036519968,10.626441560460187
3.7,-9.448374626607631,-11.06810190105757,12.129787828641604
3.725,-10.954141753659028,-11.036809261047255,13.544549674409982
3.75,-12.281401615317987,-10.836598602796846,14.645316944788581
3.775,-13.360732625699473,-10.429291443120954,15.30580829809128
3.8,-14.152778443498603,-9.831492424556306,15.523635800664676
3.825,-14.586192832824798,-9.085139204400662,15.419509096826424
3.85,-14.675890663727621,-8.256994662490941,15.198227385143886
3.875,-14.559878910678256,-7.422528080854649,15.075686903857628
3.9,-14.383598997781185,-6.611094396073433,15.195905760665697
3.925,-14.19209048718527,-5.823825802508135,15.573184630513774
3.95,-14.006074757761052,-5.092952214089352,16.134523278629484
3.975,-13.920956730952668,-4.467246465084434,16.74763410467082
4.0,-14.112962318378003,-3.8885650220974863,17.230402596286737
4.025,-14.687996189285853,-3.1855973396300135,17.438074152263603
4.05,-15.545158706303276,-2.249908767662467,17.346649064169473
4.075,-16.44880816145003,-1.1717958286652235,17.085464881212303
4.1,-17.193374361654392,-0.06978326417160349,16.88335478220903
4.125,-17.489719741987017,0.9916476681953909,16.960936319352367
4.15,-17.093191532286845,1.8241658413247397,17.307545120277105
4.175,-16.288749224542894,2.2809199463976686,17.724809891295866
4.2,-15.572062081718268,2.427812545004546,17.876524074180672
4.225,-15.179188159808024,2.417451145897572,17.482511670338752
4.25,-15.069871475384938,2.3972564106566496,16.66091757605732
4.275,-15.075068543489884,2.3911153359786947,15.711849580527987
4.3,-15.012915925600533,2.3049255560363258,14.7499957281792
4.325,-14.80682438894155,2.091113184909461,13.717986348362306
4.35,-14.644752851272129,1.8010632293218491,12.511749107283695
4.375,-14.787679912086144,1.5134766142508302,11.053022535636249
4.4,-15.313805597223766,1.1600464349805526,9.330540724998455
4.425,-16.14277726974377,0.4366999711360302,7.466635685841072
4.45,-17.07950387529591,-0.9517924574650802,5.704632260186157
4.475,-17.851203817880695,-2.888840282717544,4.258115318965516
4.5,-18.35019179164064,-4.951555129317419,3.070584794425626
4.525,-18.78214923701449,-6.870067528549705,1.7457313513075272
4.55,-19.482237810857203,-8.655889947738897,0.16689291599210954
4.575,-20.594658885272583,-10.447857679958428,-1.1111071234862158
4.6,-21.774090002515376,-12.317715932659857,-1.544499921679947
4.625,-22.559197380064933,-14.207568648539283,-1.3527646028627476
4.65,-22.889064982929746,-15.879513198724183,-1.337683924419347
4.675,-22.9866640644416,-17.049879451048888,-2.02579185441096
4.7,-22.942284240787945,-17.669738187954653,-3.1770124800719843
4.725,-22.585719571437004,-17.97995841432143,-4.224859395288516
4.75,-21.865919144328604,-18.15847897127496,-4.997349521114156
4.775,-20.995447591140525,-18.125727834926188,-5.537116965437772
4.8,-20.216359873765082,-17.760993604036937,-5.8205242416765675
4.825,-19.71161614517014,-17.08222660748009,-5.9205270965842125
4.85,-19.65493652803687,-16.226297754819416,-6.0730226825562506
4.875,-20.111878504325734,-15.333099960888516,-6.3989297568025565
4.9,-21.071714234325093,-14.479765336099769,-6.857140049523425
4.925,-22.33084604539382,-13.748610961169573,-7.297803208922333
4.95,-23.50377639659347,-13.28524028169208,-7.450242742376321
4.975,-24.36810151266083,-13.231855839671383,-7.096077798766765
5.0,-24.953879657539865,-13.55720220381295,-6.189744925524974
5.025,-25.369131296846803,-14.080535879544662,-4.798219741034217
5.05,-25.668390361501082,-14.628947763679491,-3.1560485753498457
5.075,-25.929963408832826,-15.046090683887645,-1.8691675050692818
5.1,-26.25521482549067,-15.1447152837158,-1.5174447710825474
5.125,-26.64553483425983,-14.767979486041726,-1.952797262800558
5.15,-26.912733257396255,-13.872091137417899,-2.4419822879184077
5.175,-26.835801484295157,-12.480167696185122,-2.466798471172426
5.2,-26.381685974620442,-10.681061016776077,-2.0463346898088437
5.225,-25.649167699131525,-8.640423133888232,-1.3920168441687844
5.25,-24.834444972751793,-6.432280849136148,-0.6409019771328237
5.275,-23.977658417805713,-4.038890140090943,0.25400018076152975
5.3,-22.949875733061287,-1.4527384773354823,1.4231034976482286
5.325,-21.868691943424007,1.2487087871791545,2.9036770693704783
5.35,-20.880952230013744,3.839785692200315,4.661167159748759
5.375,-20.036377345514676,6.045701547525842,6.659899316493039
5.4,-19.35228427877532,7.752506173569222,8.721254566204092
5.425,-18.825734882916418,9.028874624588038,10.517713011950665
5.45,-18.423636678763426,10.018377251584607,11.904891363811977
5.475,-18.10728286317259,10.791241148341125,12.852079976369021
5.5,-17.843137880054286,11.335555103063106,13.250299190976692
5.525,-17.66055652466033,11.682032485276379,13.091441110575346
5.55,-17.755994010412035,11.955855697545118,12.581960377109164
5.575,-18.206976426239116,12.223578964949743,11.988761863041344
5.6,-18.65490262699153,12.350504267046484,11.43025959128211
5.625,-18.661382118176192,12.20989757009932,11.047421099580362
5.65,-18.13292950994442,11.977698097971405,11.114292020158368
5.675,-17.422486789616325,11.979232359551517,11.84357321207497
5.7,-17.142062882442456,12.024953999432615,13.017415234951928
5.725,-17.624972809514166,11.4216795732694,14.17677486976363
5.75,-18.717365755467576,9.897235302350001,14.712440187710564
5.775,-19.98993638146842,7.924398007897291,14.183541821700077
5.8,-21.10434091158998,6.1845708988331785,12.738153861207614
5.825,-22.109292121509228,5.125232149457395,11.052701045671299
5.85,-23.21284738150783,4.900841692459746,9.682829881460552
5.875,-24.387999469129227,5.209281348460545,8.845856085611905
5.9,-25.231393622656235,5.507482279379349,8.853642981058556
5.925,-25.511267516892527,5.479357146798983,9.584089690985499
5.95,-25.41721153635471,5.105798028435615,10.319024543436159
5.975,-25.420191347509522,4.589814062056027,10.459274231994385
6.0,-25.814159219026376,4.164789067368096,9.809170911652956
6.025,-26.419651752938094,3.866298023048732,8.49682584622389
6.05,-27.004719448014992,3.5347800349536964,6.95123968210813
6.075,-27.614086304650886,3.050690972173147,5.691162266818764
6.1,-28.342729307063536,2.467964985844676,4.897988972349621
6.125,-29.175468024995855,1.858532519085428,4.296732124455245
6.15,-30.002858400111784,1.134849272117025,3.6079920664785594
6.175,-30.782616213572258,0.16200970205804227,2.9153420363197196
6.2,-31.616474621845608,-1.0272269008893113,2.301949309053913
6.225,-32.591004443842294,-2.166020925814777,1.6130866081952404
6.25,-33.5849832260605,-3.0114712580992786,0.6563963986284379
6.275,-34.48123197813082,-3.676786411735465,-0.334417495509751
6.3,-35.249210189579195,-4.431125119729011,-1.0271479028646364
6.325,-35.91986493264576,-5.297869791079978,-1.5162209405296319
6.35,-36.506558578524704,-6.174045580246564,-1.982006411879639
6.375,-36.92195119032503,-6.994868525364624,-2.477162277622974
6.4,-37.07343748190675,-7.739271493919749,-2.8883963152505157
6.425,-36.946052695953604,-8.364436258350484,-3.0950744059459874
6.45,-36.538412562019744,-8.76473418124853,-3.240415825544366
6.475,-35.926823418577754,-8.857982971328148,-3.4880580935383017
6.5,-35.27948017936039,-8.649639557217675,-3.763382633726854
6.525,-34.685875621311666,-8.1756430624801,-3.9076011484572977
6.55,-34.09223907493916,-7.424959292108327,-3.8188947965945053
6.575,-33.36575185702451,-6.387854987314598,-3.3851189945763966
6.6,-32.420585215045136,-5.12404831685301,-2.543504931940454
6.625,-31.19817316915973,-3.7414673521541038,-1.353481252295626
6.65,-29.672137884986853,-2.3403401161439983,-0.002098051761093871
6.675,-27.992521137351275,-0.9867371145873756,1.2796752729466547
6.7,-26.46252729771984,0.33477920917102394,2.2461792699802907
6.725,-25.345217735989582,1.7057412034413972,2.824032125679074
6.75,-24.667310278463248,3.1680987035757098,3.1724126672958897
6.775,-24.190460405997943,4.612548110613157,3.4867207432169818
6.8,-23.533615594660095,5.814163463529252,4.002759581926299
6.825,-22.391317212730325,6.618038635816058,4.8171818412273915
6.85,-20.7474678672479,7.033553659433447,5.6466031960066925
6.875,-19.04494511797713,7.134848464237154,6.014452801081595
6.9,-17.958692334779155,6.915199796787754,5.650134337590016
6.925,-17.718552899425823,6.2224490655108955,4.756882369393168
6.95,-18.002117058252143,4.948033613529875,4.03009204918007
6.975,-18.503870009474994,3.3054916792610562,4.022746115118876
7.0,-19.112196254039855,1.6611374100925844,4.64562601037742
7.025,-19.69842873549417,0.2271454031717191,5.455352650946417
7.05,-19.979454701811285,-1.1335984061955453,6.319623804948638
7.075,-19.658899994196414,-2.6298066967183584,7.446808799997385
7.1,-18.674937532362502,-4.133166461725634,8.839636596077623
7.125,-17.312484110882174,-5.267672809637674,10.1817207128468
7.15,-15.939342638082056,-5.860590282244419,11.257325186070627
7.175,-14.682269226440031,-6.074405307389223,12.100041017580294
7.2,-13.471830229222306,-6.119864054074467,12.804018866633557
7.225,-12.271642972443596,-6.073358699237794,13.452367688742486
7.25,-11.092974380630643,-5.919342082068447,14.10391481055081
7.275,-9.962285813259948,-5.6039063687258075,14.708259797845933
7.3,-8.992680686828386,-5.084477232324456,15.182717104703173
7.325,-8.286106324825516,-4.396467214102557,15.616946254412982
7.35,-7.821939957212166,-3.6286549509989445,16.217898468297605
7.375,-7.571153708364497,-2.8352974656361596,17.05771486196092
7.4,-7.573236087851233,-2.0206728023118794,17.988863225322987
7.425,-7.858574695341406,-1.1581079875645293,18.823596020192927
7.45,-8.349908856734507,-0.2420318996858247,19.458908898171913
7.475,-8.86835909477597,0.677564533535145,19.850672794792313
7.5,-9.246182815067455,1.523889535767399,20.018075753881863
7.525,-9.42878999685165,2.236983362142164,20.091926407405484
7.55,-9.4526768418791,2.791978563806784,20.216352542839253
7.575,-9.364652707688325,3.1987181358955743,20.387220620763713
7.6,-9.177356291188588,3.467417248752045,20.417504259356882
7.625,-8.954623514088626,3.5610343811522074,19.984248790843107
7.65,-8.778756920271409,3.384081968155607,19.13992899561872
7.675,-8.52375420826686,2.877863621193824,18.59695870236549
7.7,-8.001762383765563,2.181755721638787,18.437443864092195
7.725,-7.347956899602205,1.4838033470274246,17.936328374453034
7.75,-6.813025529044987,0.7590479525001137,16.909624926796017
7.775,-6.500369180134743,-0.12798895718640954,15.654906800853558
7.8,-6.425178133865145,-1.193553856232604,14.461190132460308
