Time [s],Flexion(-)/extension(+),Abduction(+)/adduction(-),Internal(-)/external(+) rotation
0.0,-7.570011038734627,-6.4354897850402235,3.4113272388741227
0.025,-7.6103050088967805,-6.480878778160986,3.505393530949497
0.05,-7.683550358244417,-6.552753802565109,3.635030401067609
0.075,-7.768925731331392,-6.634412736634681,3.7518339163328545
0.1,-7.829977002063074,-6.705734124637724,3.8217065040893674
0.125,-7.851468866327992,-6.728756388729186,3.810119306111464
0.15,-7.851429602304087,-6.700529351063051,3.730254276252298
0.175,-7.8426353939274485,-6.658830949379019,3.659492094942533
0.2,-7.817055100279271,-6.625983352175308,3.634996553523211
0.225,-7.7514456964006335,-6.610010670214356,3.6104341226333108
0.25,-7.667185146608816,-6.609551207121739,3.6043665246430665
0.275,-7.595919685027034,-6.611393259903192,3.6316784271505456
0.3,-7.542188708284888,-6.60843117512616,3.6698198192210087
0.325,-7.4939711395649375,-6.608972172922695,3.7048859512611183
0.35,-7.447664481422559,-6.6181725820897865,3.7299428792173837
0.375,-7.418067976122878,-6.634254544917691,3.7461852342518167
0.4,-7.404609156772576,-6.652295911868392,3.7631522938754847
0.425,-7.388286315177095,-6.6633933985856695,3.78395824544465
0.45,-7.351606211254663,-6.656700739029736,3.8119413755686185
0.475,-7.29406508979053,-6.6272555306464636,3.8544681592057626
0.5,-7.239521760939293,-6.584952594070479,3.9103054759411364
0.525,-7.204643080387792,-6.54457681427102,3.974757542664323
0.55,-7.176841579949497,-6.51099789918863,4.041194018908113
0.575,-7.1331766531426135,-6.4865662640979505,4.110352357949046
0.6,-7.068445049129609,-6.470906400601482,4.189009106730768
0.625,-6.989195287329973,-6.461258434057701,4.275135584185206
0.65,-6.906662158012101,-6.453948291092325,4.370740713437009
0.675,-6.833509384041631,-6.446296809072774,4.464557677024794
0.7,-6.772340795910491,-6.44140521054878,4.55180953346818
0.725,-6.728631874098568,-6.437780654507173,4.643847547454907
0.75,-6.702627871690231,-6.427485960272289,4.7302281147927765
0.775,-6.680710609165564,-6.415870404500787,4.813481001092238
0.8,-6.64606198067562,-6.403600422622526,4.90084668604543
0.825,-6.595194327367825,-6.384150751245374,4.989285610148243
0.85,-6.5375931759770065,-6.358234879710858,5.081395936935998
0.875,-6.479546826671164,-6.329647558414577,5.184300178449388
0.9,-6.4353296397151665,-6.298993139350554,5.3172449871573235
0.925,-6.403318557288036,-6.271711412950255,5.464083912868855
0.95,-6.38578889918748,-6.2387271376494695,5.600191071101401
0.975,-6.390887600543001,-6.178948163117825,5.7011734038389
1.0,-6.404354571340146,-6.072358822792966,5.744091071890051
1.025,-6.396950725833988,-5.908812452670029,5.717287107002344
1.05,-6.362916187119041,-5.691177730433024,5.6329315924402135
1.075,-6.3323053706587595,-5.422399345000008,5.499699671904439
1.1,-6.318171494317696,-5.110594373305593,5.304318297299536
1.125,-6.314452236417113,-4.746415977788531,5.030968710439139
1.15,-6.342104478203192,-4.277976662026634,4.696547331538166
1.175,-6.418726224954429,-3.6762822070362313,4.339130226709541
1.2,-6.534793379525222,-3.027907505152303,3.9652099497303706
1.225,-6.649322246053203,-2.499016677757953,3.486978264872482
1.25,-6.694880070853357,-2.1656430301328,2.696392781689295
1.275,-6.599793845062762,-1.9316541312428062,1.5336812597896334
1.3,-6.390547720872984,-1.7178805335601395,0.3438383053341354
1.325,-6.033954219866878,-1.2241686576522708,-0.7801344818822394
1.35,-5.781786113145063,-0.7822566815998765,-1.4832347202881182
1.375,-5.6233200692392185,-0.3921928664909762,-1.9082386740624395
1.4,-5.513464765902033,-0.09470680824963142,-2.21397430899733
1.425,-5.404917960872606,0.0927520680697825,-2.5418621641940824
1.45,-5.334022182105487,0.1785655053489263,-2.94319427346252
1.475,-5.367305620568171,0.18856959981771634,-3.343427140805888
1.5,-5.502335529565891,0.1380584443865277,-3.602525394740202
1.525,-5.696283900047429,0.014465942198192682,-3.630777448915418
1.55,-5.949129113556939,-0.18199114684291126,-3.4640605470661803
1.575,-6.2960327640034,-0.43823197249274637,-3.227245239916067
1.6,-6.776634188105777,-0.761824856630898,-3.0175412588494064
1.625,-7.4555797622806415,-1.1576202133710423,-2.839328428637107
1.65,-8.377571231336413,-1.6004097353497293,-2.653833498300366
1.675,-9.51830862273254,-2.0566332784671397,-2.390592361583019
1.7,-10.86039077795355,-2.5084942626235227,-2.01069015979245
1.725,-12.419835217918381,-2.9619302096768694,-1.5889044293268852
1.75,-14.14813803342598,-3.4298949341526375,-1.2574618609005188
1.775,-15.911336253595119,-3.9138024582636053,-1.0937128221250774
1.8,-17.554041496506613,-4.398038750125508,-1.0934119294652151
1.825,-18.862769758208415,-4.843125199230039,-1.2546299433858417
1.85,-19.713961812794572,-5.207834565888484,-1.608733659475679
1.875,-20.20666232140067,-5.48644371602041,-2.1848106013635156
1.9,-20.41005424357678,-5.736538636833042,-2.8512574428137953
1.925,-20.357016904955056,-6.022878532291052,-3.3279605581325717
1.95,-20.26450114809902,-6.292981541010384,-3.4446262573151687
1.975,-20.33811286511773,-6.490203499524078,-3.2640416787591215
2.0,-20.487199733732947,-6.663910653325284,-3.0485365282398442
2.025,-20.552209360484134,-6.860125258726851,-3.0158921700546033
2.05,-20.56123599800353,-7.100601469351414,-3.0923745863867294
2.075,-20.51837751915163,-7.427772104127889,-3.1627562072302258
2.1,-20.311035194317913,-7.88495766653297,-3.3370988238796455
2.125,-19.898477531250528,-8.476688854253593,-3.762053689753133
2.15,-19.363953463720623,-9.142032368415657,-4.428941606666057
2.175,-18.837697246912473,-9.817513098689957,-5.186781829452393
2.2,-18.426071218593833,-10.462578726809754,-5.838365334308949
2.225,-18.16423545926347,-10.987549458432222,-6.308754091738487
2.25,-18.008924971636485,-11.30080317379393,-6.681599875619077
2.275,-17.867229242744692,-11.421307852658947,-7.047740041422247
2.3,-17.665487281097178,-11.455969823632609,-7.41292252987334
2.325,-17.409129489005636,-11.48820949800542,-7.712035181428234
2.35,-17.172595444137194,-11.53315182354224,-7.837218634348666
2.375,-17.03177724871096,-11.547300702738543,-7.739180188942046
2.4,-17.037596248822105,-11.477218163855182,-7.484204169735546
2.425,-17.206619897784492,-11.28703751209896,-7.202114973395953
2.45,-17.473565441687597,-10.989577658678712,-6.993282664417569
2.475,-17.718244288274278,-10.708875446303162,-6.834038868311787
2.5,-17.840976189973002,-10.592408818805822,-6.610406988623436
2.525,-17.813185156062296,-10.629479595099149,-6.309356200426564
2.55,-17.69279834766723,-10.6886901416996,-6.0014625063533655
2.575,-17.568110840171347,-10.696364867736978,-5.679256045859053
2.6,-17.503783304431717,-10.682403791147818,-5.285792285586646
2.625,-17.53054557601211,-10.659034526938013,-4.856241437519578
2.65,-17.685315085030567,-10.590093031387081,-4.465269893155596
2.675,-17.975290837149764,-10.487299489229777,-4.105041139760726
2.7,-18.314208340537412,-10.40880732134616,-3.7751611659182296
2.725,-18.587733578942277,-10.357852940756288,-3.556694493556421
2.75,-18.729027677028405,-10.2865032917118,-3.4871431503948314
2.775,-18.72733538943674,-10.196734188426998,-3.4561909142167657
2.8,-18.582881017926617,-10.162243827300191,-3.278419977251242
2.825,-18.31865445071975,-10.239326140679248,-2.8169404236808138
2.85,-17.98658117550754,-10.38787385464079,-2.025897371534065
2.875,-17.64146247842375,-10.483008001607178,-0.9344106419917146
2.9,-17.289747765367714,-10.404470132033403,0.3594665054114224
2.925,-16.920762287016657,-10.06536031756771,1.6900792917118304
2.95,-16.52515261590053,-9.386428479154274,2.926809516863653
2.975,-16.06692246180393,-8.35073365916794,4.107676621944951
3.0,-15.51598666602829,-7.06347011859783,5.389819485400034
3.025,-14.78357555851469,-5.684963624573689,6.800213863383282
3.05,-13.865614680347916,-4.345920294660737,8.140444633761113
3.075,-12.97118394098718,-3.1427588993658655,9.183410213187143
3.1,-12.37908765138894,-2.078283912334295,9.93178696203155
3.125,-12.220389145231218,-1.0092538074149713,10.597503989745718
3.15,-12.454772310871832,0.2635388872456371,11.383815581482654
3.175,-12.927339043099023,1.8959269211346126,12.337243370675735
3.2,-13.450215995241102,3.8919436884216374,13.470533561312191
3.225,-13.923184605812164,6.00548465106332,14.857552444400481
3.25,-14.305316237738808,7.876825595908494,16.46464028811864
3.275,-14.620578315163666,9.25441761954884,18.05405360692039
3.3,-14.993415981165157,10.055373856835592,19.237936785365346
3.325,-15.499356584461534,10.4020996957155,19.634156986553148
3.35,-16.186550321759917,10.528285673885856,19.10191017663808
3.375,-17.01607306344091,10.611554129161492,17.73981540161103
3.4,-17.876817915358007,10.715875955810002,15.750798654387278
3.425,-18.79016289568339,10.799276711610293,13.59401341527019
3.45,-19.879298970258507,10.718374953405483,11.99014155674437
3.475,-21.04876651072006,10.2810586436291,11.493863503476524
3.5,-21.95905623138634,9.488062275706088,12.150859837397668
3.525,-22.375483181040664,8.601554259200713,13.578229883940574
3.55,-22.38542467843126,7.905468617956865,15.252020654790156
3.575,-22.36642426515953,7.562439518749831,16.786096549586606
3.6,-22.65386571237954,7.568561348461458,17.968474100608
3.625,-23.189229746512865,7.7110824361680566,18.561780414256734
3.65,-23.671480512627458,7.735610131491039,18.46277840104275
3.675,-23.792747281838622,7.536332195567282,17.841475527563
3.7,-23.451941286502638,7.204899134791984,17.02003546915365
3.725,-22.868519216750954,6.877035980303047,16.271405346987247
3.75,-22.46969327881793,6.567713937152109,15.774200613279193
3.775,-22.540939862341908,6.229929965450827,15.611806320263558
3.8,-23.03988907398326,5.873114722158504,15.711812950381402
3.825,-23.820461554814933,5.489661110903634,15.899324456048499
3.85,-24.68882045427585,4.987649386167406,16.01907974289312
3.875,-25.401314634431753,4.331041604488831,16.011023129077792
3.9,-25.831994055625938,3.7186738322168478,15.966536454099067
3.925,-26.13096096085537,3.463864806817903,16.113099722432146
3.95,-26.516956807196305,3.72800254083537,16.707925418087754
3.975,-26.9616691548537,4.442680974748727,17.73510676493315
4.0,-27.212574903011884,5.395824425914434,18.834816015799007
4.025,-27.123764054607772,6.397152400590971,19.6671992856328
4.05,-26.781274034180047,7.4270935723066,20.155136974318875
4.075,-26.37382804231473,8.67493163712233,20.457215482296917
4.1,-26.12362336069436,10.300097572545484,20.8759341055451
4.125,-26.35516215793642,12.25176533071005,21.71296085499786
4.15,-27.250850693253685,14.460703572873015,23.0758943740223
4.175,-28.651937481750597,16.83064613175508,24.813026442561615
4.2,-30.20166703675874,19.09751529247301,26.71291928549511
4.225,-31.63391104516614,20.843523727488023,28.635026479052556
4.25,-32.71290611803819,21.84782026164071,30.364104292781853
4.275,-33.22625179633447,22.23657622861483,31.53408897065191
4.3,-33.163274749961225,22.296064843618137,31.910081160468323
4.325,-32.78659639113557,22.211784836208132,31.696468118523526
4.35,-32.20401524661219,21.906666902281223,31.307783199434702
4.375,-31.16889126331724,21.13985792646712,31.01731316215718
4.4,-29.391987320575577,19.73791352699149,30.887367452816132
4.425,-26.956787586762445,17.62386288979922,30.82829901204202
4.45,-24.188783338419388,14.737423973188097,30.725204431317987
4.475,-21.18090421381013,11.320515975978386,30.56732303185669
4.5,-18.019904802523456,8.125964216091427,30.5393196145427
4.525,-15.363884003500127,5.847154170242183,30.85358685145639
4.55,-13.734916851199946,4.706476711783136,31.702354339300232
4.575,-12.63809186874236,4.608538774021353,33.131661812784756
4.6,-11.271265645703528,5.840012875698873,34.74262171513164
4.625,-9.717771961961803,8.80569800423277,36.06671218146381
4.65,-8.709639723883011,13.14980309901432,36.70633681057975
4.675,-8.442844980818828,18.075173400801898,36.27717486611606
4.7,-8.445845414280909,23.093150927255184,34.863110404657434
4.725,-8.253841181364683,27.95785900733721,32.65115869939421
4.75,-7.591385304628112,32.350293754484674,29.365144752992755
4.775,-6.4853657797645825,36.002645892650776,24.919419697710634
4.8,-5.246934677900352,39.09689150526264,19.950212010753738
4.825,-4.215131244067218,42.03391488706176,15.254262609566922
4.85,-3.4967577751458085,45.11299680834875,11.256289486148066
4.875,-3.092599833641697,48.35559989251059,7.975578201044333
4.9,-2.9558636229017416,51.4296605759746,5.211912418497254
4.925,-2.8757868626982557,53.868378617636466,2.816302345372668
4.95,-2.7504126165768814,55.319359154977306,0.8958534420391738
4.975,-2.516904651220804,55.51769086507158,-0.333840892593208
5.0,-2.13867771267216,54.29810302473433,-0.7260505668106841
5.025,-1.7390677621543644,51.69397232787356,-0.22732049315734193
5.05,-1.6502108526433095,47.85690892551435,1.1372182113035114
5.075,-2.0158738886571617,42.93963572724585,3.2253211782670617
5.1,-2.7617305467866147,37.25118736663427,5.789188924386113
5.125,-3.8600997737256746,31.226692086123265,8.665904089032205
5.15,-5.172497655369218,25.099007004226358,11.767453314825735
5.175,-6.571522629386049,18.940581749014573,14.953962072467855
5.2,-8.11158712610539,13.009681253294136,17.972942878786974
5.225,-9.530554368834663,7.749274070495973,20.528400316979496
5.25,-10.675550128696516,3.430016931657286,22.50777179156973
5.275,-11.771975846524354,-0.33651210852438806,23.658948658179376
5.3,-12.573391990379669,-3.985170769233937,23.195614242860085
5.325,-12.714392081442071,-7.14962258768697,20.81132972379221
5.35,-12.5216769079693,-9.43516313556539,17.156617299986863
5.375,-12.220201712183057,-10.926369088161861,13.07522072843103
5.4,-11.476300173225152,-11.830119698012924,9.141555819790698
5.425,-10.278706886178703,-12.335104649561186,5.833767662085676
5.45,-9.169631831611046,-12.586534613272477,3.584555665745483
5.475,-8.455004225042709,-12.619868592703037,2.4049922065696423
5.5,-7.954707987031116,-12.317416617558909,1.9420937414740265
5.525,-7.527693682202896,-11.644260188248618,1.8016082120708268
5.55,-7.290984618204425,-10.783508464285516,1.860670021289716
5.575,-7.379304473394075,-9.921988253777382,1.9630232480805332
5.6,-7.888222212027173,-9.146927052921747,1.9385343556557835
5.625,-8.80791270827857,-8.554159926861207,1.849643336524152
5.65,-10.097910317473206,-8.259375051747314,1.9305254790017101
5.675,-11.697604388151932,-8.285296323562358,2.3718767885788843
5.7,-13.423031245903266,-8.40867280759657,3.081398759379758
5.725,-14.999449975912144,-8.191915385322865,3.578295183509599
5.75,-16.406608929905765,-7.350491038598962,3.427156652710389
5.775,-18.027892146116088,-6.029284956430974,2.634415385112669
5.8,-20.301069136977627,-4.690678308118681,1.5789409544633848
5.825,-22.930944199237054,-3.823770705612753,0.6210125350216519
5.85,-25.13747384082061,-3.662365332946294,-0.22204804624301488
5.875,-26.870902783770962,-4.106909330136138,-0.9980341569169767
5.9,-28.585875649099677,-4.905311794572504,-1.6597603269859764
5.925,-30.43295050795468,-5.762911198301143,-2.2896169508632815
5.95,-32.08571879358069,-6.46791633323073,-3.1261895439409506
5.975,-33.18219459799392,-6.962842294231571,-4.216799627856198
6.0,-33.7737544205566,-7.288426220311558,-5.402123788084598
6.025,-34.23127608905399,-7.529027050705723,-6.713955380094262
6.05,-34.797335995240296,-7.764435475692081,-8.415497625209024
6.075,-35.44132616166072,-8.06697597807015,-10.852225604301148
6.1,-36.03435098919307,-8.428134948478254,-14.182065814226597
6.125,-36.348485031998536,-8.913892596606766,-17.99435067265658
6.15,-36.10868249437607,-9.887697546902883,-21.416817865014224
6.175,-35.40817635876647,-11.692955182498919,-24.012819256328715
6.2,-34.498066356866815,-14.274304147224187,-25.98828028374476
6.225,-33.41665999096599,-17.155722894891788,-27.824491100426787
6.25,-32.12047742924795,-19.744065037951376,-29.61781952442568
6.275,-30.589859718864965,-21.625056795686376,-30.884892257378453
6.3,-28.850334920582053,-22.539953030710922,-31.257798513080342
6.325,-27.107950187053188,-22.36127341643233,-31.138981105175162
6.35,-25.669949763494618,-21.213289267876835,-31.139352745183885
6.375,-24.624879606007298,-19.546837460202035,-31.28300618593888
6.4,-23.710811165424847,-17.83502614586361,-31.445164467427283
6.425,-22.701328848889364,-16.240119008688072,-31.72818114045773
6.45,-21.801285680612157,-14.733886252706236,-32.15542359457433
6.475,-21.18272725946529,-13.230025577788789,-32.23833617682631
6.5,-20.461965628992356,-11.786504265345506,-31.39904154400024
6.525,-19.433376219982236,-10.493326624229733,-29.68632168243261
6.55,-18.32333772432756,-9.243419862211603,-27.658191894141535
6.575,-17.37991871332446,-7.9165812684026164,-25.703547014432772
6.6,-16.577501467255978,-6.579600434726866,-23.857206517815378
6.625,-15.780412928453107,-5.314556415474939,-22.135457050803087
6.65,-14.841346492067117,-4.143499809128312,-20.58430921614632
6.675,-13.683855152229738,-3.043446188088382,-19.144100985961604
6.7,-12.430020553246559,-1.9591911071285688,-17.614557754985817
6.725,-11.325694224128663,-0.8691482956113967,-15.81118941233616
6.75,-10.613274302338946,0.2755192577429166,-13.740977379302189
6.775,-10.52758978499935,1.6131680105993162,-11.562076137207708
6.8,-11.084837747566407,3.23551034807797,-9.496858428429448
6.825,-11.815927145123787,4.988460327199617,-7.648055895450639
6.85,-12.195734861207868,6.571127767151887,-5.920256923112295
6.875,-12.1910629964799,7.782748390864537,-4.270224026934675
6.9,-12.047409817809115,8.531973683388635,-2.690769048129905
6.925,-11.956598434792252,8.867469309910296,-1.1632643389088833
6.95,-11.921526410690129,8.968483487478904,0.3015872656052892
6.975,-11.886189578612676,9.022638416025897,1.6890174042225412
7.0,-11.762770574511272,9.150133468784867,2.866205161899133
7.025,-11.622154600454273,9.354237112339753,3.743309070591957
7.05,-11.638190837051644,9.586814415849119,4.383604481218982
7.075,-12.000346456972112,9.799799527947547,4.941492400830923
7.1,-12.647799399325745,9.976256806120704,5.4510599589894175
7.125,-13.242554008336947,10.166141442374304,5.822836797362214
7.15,-13.615181385812688,10.405083538420733,6.07614375235714
7.175,-13.683544064852597,10.690722300481449,6.448709049583104
7.2,-13.435464776899751,11.048737991997509,7.20740933346967
7.225,-12.967166251112465,11.503692649152674,8.39065137957768
7.25,-12.334954047022807,12.009446907173785,9.827591280425974
7.275,-11.656590318819886,12.471037818874409,11.301337029499942
7.3,-10.979426177991176,12.796846860633005,12.571862498857753
7.325,-10.21247868018054,12.912030204787502,13.501539277102342
7.35,-9.331001351749322,12.771626620092084,14.109653809369512
7.375,-8.35813329149106,12.339607066075386,14.355603781371094
7.4,-7.1969560825856025,11.627663316972821,14.172875923333757
7.425,-5.917681973490967,10.74620479092744,13.574869917670306
7.45,-4.804147525491495,9.858613255705563,12.561909504533627
7.475,-4.13084740594124,9.065217925508792,11.235638836019929
7.5,-3.928658693171503,8.388220799929034,9.908629571230305
7.525,-4.081966929092119,7.723762755833615,8.8186195843082
7.55,-4.341610534895893,6.913482425209521,7.902463895215199
7.575,-4.4626739392941115,5.879192693388054,7.022965976040085
7.6,-4.29477574146795,4.632550049218804,6.167588880340916
7.625,-3.8476145580015824,3.2534136538597793,5.435143506226499
7.65,-3.231205145748404,1.7818231717920177,4.9038934218531605
7.675,-2.5310079919658715,0.21760995118190668,4.535527768270708
7.7,-1.7479820964292452,-1.4537549679260913,4.202698676977655
7.725,-0.8918736956663993,-3.2529278933472203,3.7582261051504617
7.75,-0.08729711938031137,-5.011165538865733,2.902076276655325
7.775,0.5776998105135086,-6.465552929545428,1.2395281679402645
7.8,0.9762088802594889,-7.439247816630882,-1.4331514457672432
7.825,1.0791098157780654,-7.74398476099143,-5.0744119069347695
