Time [s],Flexion(-)/extension(+),Abduction(+)/adduction(-),Internal(-)/external(+) rotation
0.0,-8.67539374635459,-7.3908903027183195,14.678613413353895
0.05,-8.921671422692175,-7.288507628542981,14.477125740867665
0.1,-9.370404095962742,-7.104487823382398,14.278187474255079
0.15,-9.586618804627859,-7.0319765828671,14.268022761097718
0.2,-9.868235823604282,-6.911902649504378,14.331383815475627
0.25,-10.278770950143238,-6.6724056873131055,14.377138903815876
0.3,-10.839363004849979,-6.3897978652175045,14.577008319836978
0.35,-11.720860097062754,-6.214801975765067,15.02105099701249
0.4,-12.862856272411792,-5.724076106387121,15.544546469911422
0.45,-14.447406672496598,-4.807276938737399,15.961736209771958
0.5,-16.702096861730265,-3.365554164176871,16.320299183358767
0.55,-19.665635093988868,-1.4157961678834625,16.867812188876517
0.6,-23.305553304337597,1.240535854519808,17.549481064428715
0.65,-27.137947272317625,4.017126777061462,18.246447498212284
0.7,-30.874439988138096,6.510170287596526,18.901865417333514
0.75,-34.38408564919997,8.697505741589033,19.459832281348394
0.8,-37.64768486746619,10.64205524668212,19.933526898166814
0.85,-40.65546327043252,12.289150993456214,20.146346844474017
0.9,-43.36365689875218,13.69011280561865,20.31955259382983
0.95,-45.717506176908884,14.864706611275174,20.419632709336906
1.0,-47.70289922241345,16.064967318993517,20.33712739999931
1.05,-49.30864544466187,17.185406202650448,20.188901791623937
1.1,-50.73110315316158,18.17780995625127,20.065094875331894
1.15,-52.08172454414781,19.047847949819086,19.853995213776585
1.2,-53.39050092685587,19.781400800431094,19.592756553515354
1.25,-54.485108598656915,20.538552061993624,19.398376925395972
1.3,-55.5352601915138,21.40273430578243,19.262003440763106
1.35,-56.38233327044383,22.244668943337228,19.185086789474063
1.4,-57.163568006072715,22.828475827849612,19.190597521654002
1.45,-58.04180795222638,23.198820125062085,19.10906388635805
1.5,-58.757981564909755,23.647542412652246,18.80748812877975
1.55,-59.33597024325983,24.074031989303702,18.39860271639118
1.6,-59.867454733980686,24.621210713212495,18.00674072065276
1.65,-60.10464706838434,25.18555470031239,17.788440814521817
1.7,-60.13430528480583,25.86109916108976,17.659990107586815
1.75,-60.132326071687615,26.662344916106754,17.35215978281261
1.8,-60.065195478349224,27.46812764590701,17.114198350100196
1.85,-59.9080684137751,28.040765202143945,17.04555631395915
1.9,-59.81680548268596,28.38145206020787,17.00052559394646
1.95,-59.8643502458621,28.70638102170042,17.014056177563017
2.0,-59.89212509390227,28.975009499929975,17.032858739404826
2.05,-59.95928450735912,29.082836958559312,17.125192694644873
2.1,-60.026844945956405,29.080958346225227,17.051009816298325
2.15,-60.131803059411226,29.025003694114037,17.061714119294823
2.2,-60.17449719140353,28.87762017901347,17.158280105917168
2.25,-60.307289693505275,28.66542384802866,17.187023206635722
2.3,-60.415077136868966,28.440098599714513,17.27277229015944
2.35,-60.45729027420523,28.221414592349504,17.467464162092813
2.4,-60.57865320024598,28.075749733645193,17.507436723168126
2.45,-60.650578692402355,27.898202225638357,17.556794735572883
2.5,-60.64842806180578,27.74029957479313,17.54719818393666
2.55,-60.5943476308527,27.63272620382573,17.5737658930257
2.6,-60.53475113816417,27.47748473374677,17.774767847431992
2.65,-60.454103272105925,27.358180354910825,17.829774891989352
2.7,-60.313560302329655,27.320932856299862,17.882836701290046
2.75,-60.209214400545015,27.268986291705477,18.07594242350434
2.8,-60.11339930604034,27.20894538822878,18.216837034818646
2.85,-59.97794328112818,27.109361390135337,18.3691351349846
2.9,-59.83330144756963,26.978119376680127,18.541081493254246
2.95,-59.71775368834115,26.892595072591526,18.73431419789602
3.0,-59.63887874009739,26.80337838728142,18.832142546248367
3.05,-59.61338008960144,26.747594023114008,18.88982952068343
3.1,-59.53555766501643,26.653143050916672,19.02042172547689
3.15,-59.47283030061734,26.583884343907698,19.03827018030073
3.2,-59.376505542661846,26.479026819366876,19.15886557039779
3.25,-59.265388934565664,26.394885956067117,19.311225666867173
3.3,-59.10695461698921,26.267718483264503,19.556174334564005
3.35,-58.90744427391805,26.2042847881626,19.76834003419087
3.4,-58.76871590887086,26.141950439765743,19.985707162466948
3.45,-58.602499492093905,26.147368355610677,20.115780589061735
3.5,-58.42615074541516,26.123180469940692,20.286879920738503
3.55,-58.29390782273843,26.13295580894393,20.429112447165757
3.6,-58.195352948913104,26.08447514066121,20.584136535031252
3.65,-57.991212709029796,26.079568921882096,20.659394737598323
3.7,-57.744998092567855,26.131494514209926,20.602931428480556
3.75,-57.58558837074969,26.242887242193472,20.43604585674807
3.8,-57.45244682630806,26.36532612253605,20.221199261540104
3.85,-57.26309424359791,26.45994062723026,20.149869741735426
3.9,-57.13983700978657,26.534586682564168,20.034980011573953
3.95,-57.02336562038674,26.64144827628929,19.8881654322091
4.0,-56.86869379070683,26.720026749887133,19.76646814489928
4.05,-56.730489318959165,26.821536475332408,19.63209669356817
4.1,-56.590833564353964,26.91598176380211,19.424088528221972
4.15,-56.45537499264783,26.978079029728107,19.281524083643617
4.2,-56.31618236736605,27.054762244177482,19.09400752018334
4.25,-56.17786407990722,27.10981187888913,18.96717351697336
4.3,-56.05110600426373,27.14132187426931,18.86708634666264
4.35,-55.90483000822901,27.18311050300724,18.740383834848437
4.4,-55.797499302151586,27.10986294741071,18.70172406713649
4.45,-55.71173585147363,27.035629966928624,18.646064615203247
4.5,-55.663123711459725,26.913695737917752,18.569910939087414
4.55,-55.59581141077231,26.822338140164295,18.608681855909367
4.6,-55.52335658426677,26.757871540553072,18.570103383423202
4.65,-55.43265644310613,26.703081798245645,18.57173180092409
4.7,-55.27554475308397,26.642085735385532,18.536229137680092
4.75,-55.06490206016325,26.63699370132704,18.426757130983926
4.8,-54.78640839987904,26.636576187916734,18.044937704250355
4.85,-54.56435344345835,26.690024949562517,17.671099087127534
4.9,-54.3916092084371,26.682417187002592,17.421661185214095
4.95,-54.32634896164655,26.627765448583137,17.312014736405697
5.0,-54.23609480940739,26.61209467015486,17.19796905487669
5.05,-54.099447063064055,26.6951830302339,17.03486487289051
5.1,-53.98831272057574,26.764467995592618,17.044440743691982
5.15,-53.94284657361267,26.8164812011296,17.022161968435427
5.2,-54.17099310054284,27.045985309225685,16.645933696977853
5.25,-54.67366716195303,27.428614511868435,16.13880091535674
5.3,-55.29078254956303,27.269076536681194,15.278437069187122
5.35,-55.46057290451787,26.38787392924424,14.430939094853159
5.4,-55.072900324637985,24.75985592532171,13.990206761587695
5.45,-54.38216263336266,23.878432720016704,12.614001660917369
5.5,-53.490860622572725,23.154995803972284,11.369906957266446
5.55,-51.930782606026774,22.525553939099943,10.657096482752479
5.6,-50.035018439739055,22.039271342042905,10.277742494182567
5.65,-47.85584428657404,21.698257203057384,9.441973014364926
5.7,-45.146581370336655,21.365930921780368,8.595626112240543
5.75,-41.141146885572866,20.27360904891211,8.165567379463985
5.8,-36.34237724731137,17.85999407265927,8.38237716052441
5.85,-31.445140467517152,14.406319451785599,9.454370757629563
5.9,-26.864579705665662,10.676026015584409,10.905109994160721
5.95,-22.984525656268357,6.714335481025291,11.890715773920038
6.0,-19.97594778329649,3.13500468381332,12.197842592621237
6.05,-17.913340148430265,0.06036009184856168,12.597714976405888
6.1,-16.560030695084894,-2.4910891320456656,13.619907596544802
6.15,-16.024717951523606,-4.325274303634312,14.624638004035086
6.2,-16.134370219254322,-5.459909494843508,15.133616882657785
6.25,-16.180166322300032,-6.22612412691322,15.518960136793583
6.3,-16.076126209132617,-7.053875724081059,15.85098985520598
6.35,-15.445482802199308,-8.051891423390574,16.311428715430235
6.4,-14.658072163502306,-9.137559186950977,16.73560942775891
6.45,-12.717497490649363,-10.381092536299171,17.305443330028503
6.5,-10.169715397073368,-11.76675736258073,17.945647063035267
6.55,-7.498085385364124,-13.219124600850295,18.756932590452077
6.6,-4.86753150733248,-14.859719742858147,20.04060850426536
6.65,-2.7029564574892158,-16.04505376977178,21.07189522591967
6.7,-1.101683398151441,-16.836258144667127,22.284700233408618
6.75,-0.01651073446940527,-17.371797523024895,23.641349550293064
6.8,0.738336577539923,-17.53173998680409,24.72262108770592
6.85,1.199086108568429,-17.460378725318016,25.64869645093155
6.9,1.4225117065613706,-17.42473882622308,26.46757621645943
6.95,1.6620758214853633,-17.166706827056977,26.871788401093667
7.0,1.6733884706230957,-16.929017273524035,27.099530125122733
7.05,1.763059062618479,-16.97993832079269,27.518132712013735
7.1,1.8919320268535285,-16.852298271506523,27.672328655186963
7.15,1.9078072195653937,-16.71279461135329,27.557049101816173
7.2,1.7703998536359788,-16.659923911501043,27.265226094323417
7.25,1.590213168441673,-16.584041423575464,26.979961222194795
7.3,1.4265866826728613,-16.603779756009132,26.672801256676387
7.35,1.052640615389322,-16.426440701072554,26.25561812061996
7.4,0.6819372360617788,-16.213517636670584,25.905088392467317
7.45,0.20838980920871106,-15.93033654010819,25.725803185148315
7.5,-0.14597525560714064,-15.544869347657396,25.403722556309596
7.55,-0.39586195605362834,-15.013217527234325,24.956970537377018
7.6,-0.686502061521753,-14.613090390645512,24.53695342197627
7.65,-1.2083880337679822,-14.351524289801116,24.03712791451941
7.7,-1.520284349180266,-13.978360858105393,23.5155308878158
7.75,-1.6273070984050642,-13.697402161640346,23.235805639977638
7.8,-2.0192774758749223,-13.338964721366114,22.64323322239992
7.85,-2.2942889566333684,-12.696995739547052,22.084764842941404
7.9,-2.754899189032507,-12.076403087453922,21.50022934570471
7.95,-3.379841397020783,-11.048165476748167,20.627678850509742
8.0,-4.06063306649799,-9.786437064356177,19.62815013217833
8.05,-5.334448082376469,-8.896824000122647,18.269466425663715
8.1,-6.847182375204058,-7.834621254242198,16.873392307998543
8.15,-8.641240831353082,-6.514222292674859,15.143462855195478
8.2,-10.73008530175633,-5.59163029481783,12.807787828777672
8.25,-12.745974054160461,-4.123718751334069,9.22248578567569
8.3,-14.02254853126869,-2.5731811008972016,7.7685242713078555
8.35,-15.273101555860757,-0.13989657779218556,7.903694744375573
8.4,-16.612568851315203,3.533816399260393,7.454300633463093
8.45,-18.420932935417415,7.105002625136937,7.945969310748856
8.5,-20.938903266644356,10.017691753771246,8.847560016666389
8.55,-23.75280922269106,12.817643369520775,10.34460612237665
8.6,-26.346777125868904,14.94542965792532,11.960983056272356
8.65,-28.30973814900287,17.414929743567228,12.7314595404368
8.7,-29.758665227639952,19.214737463351597,13.776999590118866
8.75,-31.17689516096122,20.103974243639676,15.295743478320434
8.8,-32.11158455624829,20.30272541931958,16.78592606417582
8.85,-32.7091878627552,20.20439207919513,17.879838277375622
8.9,-33.14514417070511,20.08356335222642,18.484547851007893
8.95,-33.40046599990602,19.958028710470707,18.858601239918823
9.0,-33.69123637790049,19.765864326933844,19.404837250759503
9.05,-34.006382676321635,19.548864252463336,19.940071936472616
9.1,-34.5655749625584,19.589938313754043,20.351287046708347
9.15,-35.39744053529857,19.516352864044382,20.708285484835393
9.2,-36.583014974117546,19.464289866223062,21.10871756919633
9.25,-38.02962095460044,19.31495919003619,21.576982420092616
9.3,-39.30331402598924,19.2972738130998,22.13822132011865
9.35,-40.23114219354572,19.340753099691657,22.637199579316018
9.4,-40.82954423926815,19.404867375017567,23.301616610520895
9.45,-41.19011270106489,19.5408588411758,23.71477044332914
9.5,-41.325043209619274,19.796331730605797,23.88639475052371
9.55,-41.33258245194954,20.070152676975237,24.142550760686273
9.6,-41.447443654802974,20.357951613988423,24.156917975095727
9.65,-41.53564169316302,20.617616566584687,24.160502203514582
9.7,-41.556585803919326,20.87792535610416,24.172437919784816
9.75,-41.48227472534095,21.17868372729125,24.19483421731082
9.8,-41.248932960572304,21.399182739273602,24.237672613397837
9.85,-40.96653936093999,21.403167620777882,24.117093224530414
9.9,-40.50202190717654,20.975505703299227,23.855709022785003
9.95,-39.543278646227954,20.12229458858046,23.42402878828872
10.0,-37.94023830216068,18.602677937159026,23.080434167980798
10.05,-35.51558731901184,16.133760094000877,23.368299452929104
10.1,-32.71239466700876,13.143971993087643,24.33796842521032
10.15,-29.686335562620883,9.832400553574569,25.579811945396
10.2,-26.654720225116723,6.486609350096835,26.51095299817268
10.25,-23.805825805386508,3.442964934898234,26.912074574130088
10.3,-21.323515121508137,1.2634922546416412,26.681830808638
10.35,-19.441283848107958,-0.4787885057927553,26.160825500722652
10.4,-17.923497336236878,-1.8426488459341814,26.190712184220192
10.45,-16.949047090686605,-3.2209959203346807,27.391201946245467
10.5,-15.461873974737351,-4.715244690543045,29.704556452035707
10.55,-14.37694148312288,-6.024128890027329,31.58414520939552
10.6,-13.887963478495953,-6.810195919960343,33.301485448860255
10.65,-13.831285645178651,-7.073360301854124,34.847932957738315
10.7,-14.0167596636747,-6.819645383702001,36.79286109079986
10.75,-14.517758485150631,-6.3770263984151985,37.813565815074995
10.8,-14.745169664835569,-5.9070799498818225,38.600571888691576
10.85,-14.894943577068874,-5.095514903059841,39.83608732856454
10.9,-15.055917619794537,-3.8224341123664938,40.25665135407486
10.95,-15.298582822067466,-2.354264466677633,40.0014708296069
11.0,-15.389275114064858,-0.5920007730764152,39.661487696055616
11.05,-15.600995071544256,1.159109916723123,38.5330319153581
11.1,-15.656253423991314,3.0122928426947877,38.169385363519346
11.15,-15.771447853986194,4.593582516091331,37.60018279211486
11.2,-16.202162443808234,5.603784505163634,36.83917011046826
11.25,-16.278691661073967,6.223185034291936,36.53733002303089
11.3,-16.16164906131514,6.1954449197677794,36.6686395946086
11.35,-15.682225736408304,5.677337387627379,36.96685543818492
11.4,-15.158490609008854,5.259292582131344,37.25640242280442
11.45,-14.728932992461871,5.092043752352889,36.87156127502958
11.5,-14.470104064567904,5.034982775414324,36.33123004819111
11.55,-14.404200364875665,4.838859669438733,36.40408644233447
11.6,-14.502087240596783,4.740268680009018,36.11448731424788
11.65,-14.60638235514496,4.517062115806805,35.97856167480998
11.7,-14.612891362159907,4.503776877105799,35.96458178506254
11.75,-14.69518086037362,4.646954144213813,35.828171331726715
11.8,-14.566313339319013,4.673522316456908,36.11762651805304
11.85,-14.452023232688672,4.678834145792997,36.45791488578744
11.9,-14.336783451804886,4.924887199614302,36.251104087104544
11.95,-14.146201652185793,5.11700587418036,35.95780362768649
12.0,-13.775439763045124,5.260630827527713,35.753241909934154
12.05,-13.32066039768857,5.349022197589539,35.64041221586435
12.1,-12.899381656181685,5.43035288510473,35.59403013231475
12.15,-12.762290642787152,5.612943145503031,35.41085574418488
12.2,-12.588093997848159,5.838595617271678,35.32905044688011
12.25,-12.373604996456807,5.771539992504026,35.44938084853302
12.3,-12.16125048573505,5.695596456253991,35.31870853111916
12.35,-11.698768725040042,5.870707310405358,34.66184025504216
12.4,-11.07880735144326,5.940534851012646,34.0361587630411
12.45,-10.554504923161778,5.925804177750265,33.59686045498486
12.5,-10.19664514822,5.939625525346752,33.073367979455554
12.55,-10.052966841421636,6.021645485356026,32.61602015942201
12.6,-9.939821579708733,6.035348146801665,32.40447756214981
12.65,-9.82466408579149,6.031595909343726,32.24995638988196
12.7,-9.700725323737574,5.980226677628773,32.14035106886841
12.75,-9.522052111053142,5.879772156931023,32.00386882644624
12.8,-9.414327863629744,5.809855362492735,31.77531582925966
12.85,-9.364706896594521,5.861209829962813,31.609422832011983
12.9,-9.392240517005055,6.055448738681813,31.431276572637522
12.95,-9.464418859532552,6.126493502027795,31.413174434240766
13.0,-9.534755252789694,6.028556126343772,31.440253923758316
13.05,-9.598428178449916,5.957657039703907,31.48885289821255
13.1,-9.672655305145963,5.903308042148886,31.375825904705465
13.15,-9.538528652345143,5.814760514987037,31.379914005325073
13.2,-9.482760467804013,5.86983064224958,31.43692170822176
13.25,-9.664794844427592,5.94171609025782,31.498043485205542
13.3,-9.898522226734887,6.044406289161979,31.51348223522529
13.35,-10.007817072894536,6.046003214530659,31.56832389742192
13.4,-9.969015794404205,6.095486845090245,31.446692314494236
13.45,-10.025541094584792,6.104456595242944,31.34566151733591
13.5,-10.079345454203683,6.091974187844932,31.190404718768438
13.55,-10.08137197145341,6.0350888074358275,31.135710774952656
13.6,-10.022607509527358,5.962364625235071,31.10825242776719
13.65,-10.104149806494927,5.9708121227484625,31.032857479873297
13.7,-10.164068681645082,5.894924287958469,30.96553154362472
13.75,-10.197147826739462,5.73518035228399,30.916754623618843
13.8,-10.276898572575856,5.659350251138459,30.866977650575176
13.85,-10.381588136781012,5.539756687410042,30.89107049905931
13.9,-10.481673462819398,5.400194601009971,30.816252477715096
13.95,-10.637156133237767,5.161582480134148,30.78996364417209
14.0,-10.767676342119325,4.964590121919554,30.713506168308136
14.05,-10.710496815303184,4.788584214950331,30.775309794376017
14.1,-10.58441015536981,4.583780975974408,30.75326187594067
14.15,-10.488240252253226,4.452933549865423,30.779789549244033
14.2,-10.370339813205666,4.260696433344203,30.809272682761737
14.25,-10.280043002064291,4.3233469869573025,30.89871518592574
14.3,-10.203976668353363,4.393058367622377,30.891132236652744
14.35,-10.122876881781805,4.4847680570514745,30.979577167358595
14.4,-10.144299024336116,4.554748550745693,31.008565871570948
14.45,-10.16261105057157,4.558378903621907,31.012918143586532
14.5,-10.115399085923933,4.45762705231708,30.86330290881058
14.55,-10.083345538998124,4.492051864938275,30.7742228635468
14.6,-9.968083831627212,4.569976016794639,30.791840116598433
14.65,-9.842743667352043,4.656735822900705,30.879050182403585
14.7,-9.679252581389326,4.783930983809303,30.920009041489767
14.75,-9.551378652523322,4.861579094385314,30.901687058857707
14.8,-9.428753255008992,4.996789244421933,30.81651900126532
14.85,-9.33926430825451,5.139874912374814,30.775556053075306
14.9,-9.239998732241881,5.247184609275115,30.784142132595203
14.95,-9.121778551496474,5.358327652670273,30.86079344779321
15.0,-9.018996285488123,5.412684916573196,30.957288189251397
15.05,-8.928865674702793,5.417042551016246,30.958251394972432
15.1,-8.941481987607867,5.520272077443677,30.957186474991474
15.15,-9.004679858552258,5.56147523150977,30.958925920395053
15.2,-9.03973619188788,5.6342444922817245,31.028623903077975
15.25,-8.959935095953567,5.701470776385864,31.133811064635648
15.3,-8.95384520712567,5.743883090676383,31.11320410881512
15.35,-8.892849155875053,5.832453405214865,31.026437563718147
15.4,-8.794463624354268,5.906402501860856,30.91224339089711
15.45,-8.723899869275238,5.937259716671184,30.821203506488825
15.5,-8.640031625389334,5.963000708934943,30.782308706765473
15.55,-8.671825705318327,5.890033629730053,30.737218296506093
15.6,-8.762622502080589,5.883041594712697,30.658431216354604
15.65,-8.777343020087976,5.866991535312908,30.75026563853615
15.7,-8.828259615384084,5.869164487374959,30.808683301931513
15.75,-8.974894660831099,5.8166929922261765,30.99306699255609
15.8,-9.105088834981007,5.727117780509809,31.103847012082344
15.85,-9.216623180466648,5.709211005780528,31.34016941974685
