Time [s],Anterior(+)/posterior(-) tilt,Lateral tilt left(-)/right(+),Rotation left(+)/right(-)
0.0,30.220300462425786,3.9322580753249348,-24.24126356837022
0.05,30.055319937656318,3.7097370363164703,-24.390779472373424
0.1,30.011221207233675,3.456675081341351,-24.397078083438025
0.15,29.96359663690149,3.3174777482101843,-24.313196212543055
0.2,29.68464989392146,3.200617097143652,-24.317123450832312
0.25,29.38992274896095,2.984034849368696,-24.31410645748702
0.3,29.35762545213097,2.7274528528244013,-24.408057281827645
0.35,29.372494788355024,2.359113608891342,-24.35891474133994
0.4,29.571783364783123,2.041934820992271,-24.36096904524213
0.45,29.672664856095366,1.8340172181711298,-24.417178499302985
0.5,29.82636305451847,1.6179486323621048,-24.46625842228138
0.55,30.153931294028787,1.397786374966287,-24.43984158130007
0.6,30.34514874904157,1.3231980482362429,-24.296391090241883
0.65,30.687016195974508,1.5227032306031136,-24.252081429090055
0.7,31.072650524696776,1.7287749500080183,-24.012229155901593
0.75,31.366510222620196,1.9528417912116423,-23.5459402260356
0.8,31.755752101805243,2.1776143650171407,-23.03254998949052
0.85,32.22354882280029,2.3306774635138354,-22.32287886444153
0.9,32.912273397063046,2.384852667041521,-21.755398035133446
0.95,33.40017459711715,2.5596171612465315,-21.289285312656325
1.0,33.948976137652124,2.629320835327631,-20.745562799077987
1.05,34.59055379511214,2.7323602774310007,-20.503935834589992
1.1,34.84938150630058,2.833012885505819,-20.238959255456972
1.15,35.382823399781756,3.0217206565074384,-20.031510566253246
1.2,35.760823229845855,3.1715941355428767,-19.69816956020803
1.25,36.128085680606716,3.4388717658446244,-19.436393902428527
1.3,36.41789539349291,3.5527116469536777,-19.071475118733783
1.35,36.75925533352935,3.566415450504673,-18.724336173355653
1.4,37.07360917523291,3.752383125971348,-18.53250098421911
1.45,37.167843844718846,3.6495644444580284,-18.35669596905462
1.5,37.45677890462532,3.516588662106198,-18.2254180429128
1.55,37.495846736127554,3.43193193555099,-18.071932527378305
1.6,37.72551349808124,3.2396942553850456,-18.038275428144868
1.65,37.73991419127897,3.1219677740741596,-18.128424177312247
1.7,37.82678078010523,3.1166212547833627,-18.412999483344272
1.75,37.546173988494516,3.133666130688336,-18.800822499365786
1.8,37.394823957895674,3.0672994545337606,-19.19027018615623
1.85,37.085447440033604,3.0164470646956647,-19.510992916363474
1.9,36.82307302976568,2.9303133296097554,-19.858633769249735
1.95,36.38402320451102,2.80622924727214,-20.19636409146967
2.0,35.87404665226116,2.6642057657504727,-20.485898730660168
2.05,35.40739996637842,2.4917468940119325,-20.823990175710804
2.1,34.85423529203656,2.3109113033034836,-21.188468882316716
2.15,34.33726704364849,2.2197044361230183,-21.64600502567914
2.2,33.81073098400132,2.037700809291278,-22.203906784439663
2.25,33.35394103184007,1.8275022457921934,-22.872377854212264
2.3,32.924456366417104,1.8287225050650462,-23.5587889845401
2.35,32.43225287989922,1.6747400945626187,-24.03620003299425
2.4,31.96124937777657,1.6117694651136423,-24.45708881580098
2.45,31.517596179257968,1.6913626825251127,-24.827707341975117
2.5,30.539161690323827,1.1558676109060926,-25.139498724897294
2.55,29.795413663419303,0.5768387141375684,-25.768866792925234
2.6,28.66523963827208,0.15570055538706737,-26.736287420826446
2.65,26.98055683508487,0.1590904502018788,-27.892827040961205
2.7,26.23039268754405,0.214774854182076,-28.763159832202298
2.75,25.536256939732848,0.22970315546556958,-29.681494717914113
2.8,23.297522491119217,0.4175686299548052,-31.424402580376906
2.85,21.684612840777895,1.636407769789257,-34.810423074783316
2.9,20.601392223175555,3.4764573112997117,-39.113386520749145
2.95,20.516438532120205,4.633079052085554,-42.75572229782222
3.0,21.308661430100823,5.208034784540273,-45.03382130422799
3.05,22.476819759116665,5.8214356092226565,-46.79640587546871
3.1,22.884286943769588,6.522164677409919,-47.64599359593252
3.15,23.669353797885307,6.472461658743798,-47.59183327794416
3.2,23.77911080095021,5.741385796901278,-46.90489392439451
3.25,23.94000775217812,6.036852091331614,-46.59846701669823
3.3,24.14142271394652,6.458615036139737,-46.872028015816504
3.35,24.639915000370433,6.5937307599232104,-47.850662134251735
3.4,24.522141409890953,6.203376015752261,-48.98942935682664
3.45,23.979239584335506,5.6038493964217455,-50.17183641946716
3.5,22.66725658581406,5.271733377906163,-50.70977143378858
3.55,21.964908935002505,5.149044223086934,-50.91655318042306
3.6,21.6629052468086,5.034022746969714,-50.785505922833224
3.65,21.090225741953535,5.512894130614488,-50.555792914526755
3.7,21.243836956209645,6.049462354764016,-50.082621137517165
3.75,21.257647829898097,6.1170915853550385,-49.36598143153731
3.8,20.641585630333815,5.952607524364389,-48.746511198006466
3.85,19.787207844659733,5.782555908587628,-48.27730677033751
3.9,19.073059363048344,5.5662179013298445,-47.901682562397845
3.95,18.593167062221376,5.304893457041157,-47.52516281309668
4.0,18.667270352049552,5.315144813315852,-47.13127313783035
4.05,18.884192434798173,5.524304650847057,-46.73526818475597
4.1,18.991505066474446,5.760445774740212,-46.51665993498184
4.15,19.191973213746564,6.211584926556349,-46.16514939361749
4.2,19.496418254410948,6.692502135231891,-45.775121474632435
4.25,19.959364028325762,6.774386586123563,-45.47653900217755
4.3,19.68908384687464,6.743117577353323,-45.14147155898093
4.35,19.59689539569912,6.740486002125994,-44.70020844521778
4.4,19.748373397459375,6.694476502480114,-44.343771688425505
4.45,19.973302349342614,6.760105302559515,-44.17175212238413
4.5,20.341404355812692,6.920530063657912,-44.1162350348589
4.55,20.607978661050165,7.17919579749704,-44.20777189280974
4.6,21.01973204635234,7.664229124097036,-44.15611623648595
4.65,21.312817588197845,7.944409580627444,-44.12373283734213
4.7,21.5634944239828,7.985486881903347,-44.30593234587828
4.75,21.93388909279659,8.143508264339175,-44.412154715382684
4.8,22.298813795626153,8.391210891489255,-44.51887458632176
4.85,22.751074208623866,8.474729402919507,-44.56768113636446
4.9,23.50422420823372,8.808649416206006,-44.67566674736437
4.95,24.355805610943445,9.295012953765925,-44.71383458977588
5.0,25.618790285033253,9.726783737755838,-44.62292559911332
5.05,26.673266904314684,9.899984357816713,-44.324777731847966
5.1,27.670515379391315,10.11894559532492,-43.8510064938337
5.15,28.56103129374723,10.083336326581279,-43.07659602417798
5.2,29.475934616248427,9.843991826680494,-42.14613187849945
5.25,30.276757775208825,9.839130287052077,-41.213783676497755
5.3,31.154666079606752,9.849786526232908,-40.060713944161016
5.35,32.79963433147465,10.206320546401288,-39.08838642133384
5.4,33.88257348717877,10.325847000783478,-38.19707057674101
5.45,34.60801205775292,10.482429770305533,-37.69984458136998
5.5,35.14856345562974,10.666260790288241,-37.43977202991447
5.55,36.22793265027006,10.965815459175497,-37.17773689891826
5.6,36.51763207548361,11.01673126185792,-36.818035578205844
5.65,36.54275912949882,11.03971733696449,-36.27854145540184
5.7,36.65105440782963,10.986082984350217,-35.96927262628064
5.75,36.80590010694825,10.906300056347726,-35.77489998945363
5.8,36.7196062773754,10.824665272717878,-35.6245526233425
5.85,37.01630547122103,10.771975249305942,-35.46443873446264
5.9,36.90619183679604,10.676441268144973,-35.494352232007834
5.95,36.8561575174035,10.775788920897895,-35.6169411943749
6.0,36.776777521457305,10.747345944315713,-35.6152092080691
6.05,36.75696457168278,10.699430114718606,-35.58007087229422
6.1,37.12320850604614,10.641300951780043,-35.5834486200058
6.15,37.17639302150838,10.558643451221448,-35.71333345673251
6.2,37.26626890729717,10.680532923798207,-35.9883546687153
6.25,37.21899226873148,11.068137669403267,-35.93869575135391
6.3,37.50369075294519,11.289111111180146,-35.29483754474778
6.35,38.09405280348808,11.623110625749765,-34.96066712153517
6.4,38.80145665106435,12.058364082347792,-34.48730485232113
6.45,39.97816747332034,12.433887922748426,-34.02798005437885
6.5,41.38183083777407,12.555673996542609,-33.18449743456829
6.55,42.941078264187155,12.616193520036763,-31.997419176008734
6.6,44.90063237052926,12.972564901746765,-30.940625524260287
6.65,46.12400736708989,12.89249482577509,-29.981033123739245
6.7,47.20916568807282,12.727992437680303,-29.095960522566866
6.75,47.650405646433505,12.747616501528249,-28.388930634345034
6.8,48.17806832198524,12.940774459717217,-27.776733279697943
6.85,47.698219741944435,12.75869030208863,-27.38255271468361
6.9,47.91003680372844,12.726518592905684,-27.095377086227728
6.95,47.41400822073185,12.674054577866771,-27.11365394746081
7.0,47.32575100397564,12.785373274500197,-27.16417602885581
7.05,46.878923275343205,12.77612283499323,-27.23501703636965
7.1,46.715396199449,12.755804334701574,-27.31494502306923
7.15,46.30405908761686,12.717881104026146,-27.509629320945294
7.2,45.629536099577436,12.707466832839382,-28.009768637987758
7.25,44.971656581865716,12.66271905173818,-28.561466865770477
7.3,44.28857211764293,12.536147052161322,-29.260873218018006
7.35,43.57712271292849,12.40461648730961,-29.99627045929994
7.4,43.16386400908696,12.310034897344146,-30.774421263258
7.45,42.60613646694616,12.151261967416946,-31.750663104036697
7.5,41.71167818667029,11.844030550961275,-32.53395846267457
7.55,41.40083142222537,11.59942782190154,-33.30470494248205
7.6,40.778281067540924,11.32715735720698,-34.267580356163215
7.65,40.09832684578284,10.927651962251637,-35.14116529866671
7.7,39.24131592025192,10.460402575908416,-35.89002922233227
7.75,38.66356003224996,9.82640651483521,-36.27432243458842
7.8,38.14825511713865,9.315270864702104,-36.7803672274761
7.85,36.876188904437804,8.82607654321648,-37.00288612811973
7.9,37.22333685554733,8.801151406210966,-37.10363205439906
7.95,37.26238727700309,8.672889179192284,-37.20471570476319
8.0,37.00730573293416,8.31486214583597,-37.157084418392785
8.05,36.554229773902236,8.193483715384042,-37.4835696890147
8.1,35.86958343553825,8.256851329149747,-37.967441129499825
8.15,35.224994172608255,8.144394887691664,-38.12695303935734
8.2,35.1722633652107,8.18011162829817,-38.13720081385978
8.25,34.97493467698877,8.013113322374926,-38.00841565493824
8.3,34.85374897306851,7.878306854563341,-37.917279467093984
8.35,34.554122780719304,7.709056438883279,-37.81601259237018
8.4,34.436916356988654,7.6820850669187335,-37.85076751642967
8.45,34.16790552514759,7.651254918366568,-37.878974822904915
8.5,34.09493744806447,7.7173091792675566,-38.00325900025405
8.55,33.90491573975039,7.749620349924456,-38.02889542566416
8.6,33.85387185477005,7.740874514943191,-38.01743551770321
8.65,33.890402898949915,7.681821014685636,-38.01072257193972
8.7,34.026226076818205,7.59924545476028,-38.076331875738866
8.75,34.049265914203154,7.629262727139485,-38.24185382280648
8.8,34.0938323432861,7.560823905004149,-38.229656692430716
8.85,34.35516771408519,7.514635624303256,-38.02412564723409
8.9,34.110977225437416,7.254548465632145,-37.748168351502514
8.95,34.186611326012816,7.171835019936296,-37.42072697890678
9.0,33.750066977879975,7.178818476998646,-37.216964467216684
9.05,33.539667113990845,7.4924343609304,-37.315942472001375
9.1,34.27561372959213,8.074651076418286,-37.46840958737872
9.15,34.758248468531455,8.89784668635379,-37.94144427479335
9.2,34.79203573828131,9.460562037204967,-38.074090167359955
9.25,34.505565818117205,9.095931983692983,-38.01061984546294
9.3,34.03152259772775,8.772505921897052,-38.03608215206906
9.35,33.39481675777875,8.570320195962562,-37.97721771959443
9.4,33.10414184435774,8.517221986443943,-37.691613715318965
9.45,32.81920063631092,8.501027870014948,-37.31825299191046
9.5,32.20198733702549,8.621208412357735,-36.935084975586506
9.55,31.664014882836565,8.8086872324966,-36.65527196434466
9.6,31.623615675446274,8.748385535611735,-36.667670946922826
9.65,31.51605112724573,8.747065426478224,-37.15303149500223
9.7,31.03253128725599,9.553873336284138,-38.20665930615364
9.75,30.20492754337301,10.537053417006469,-38.92125690269717
9.8,30.2323537476052,11.124103007508522,-39.09385248416578
9.85,30.49523453893108,11.380353896289007,-39.15547701617844
9.9,30.545097643807203,11.333990716650128,-39.20040223261412
9.95,30.819855834411115,10.829283913745046,-39.13317612349159
10.0,31.030553832531307,10.575507410706964,-38.94457363832769
10.05,30.64235817700026,10.461790491212064,-38.695645821514674
10.1,30.42755769304932,10.443888416628965,-38.66241297635193
10.15,30.14203465707084,10.32075079583353,-38.7760990796781
10.2,30.04132914693477,10.231137590243124,-39.108390182432025
10.25,29.796045670611107,9.878256071584676,-39.70474527839752
10.3,29.62244608876796,9.755627354681337,-40.39355762054167
10.35,28.998476782488236,9.786910157126004,-40.85177539997572
10.4,28.834373873591378,9.831184882073787,-40.85664098981144
10.45,28.85364750801453,9.908366858107774,-40.653689383554116
10.5,28.617712615417894,9.997521101807427,-40.40453698420891
10.55,27.725000245205898,10.14189299617184,-40.419338042881634
10.6,26.31301223483134,10.560417256959528,-40.88217269558664
10.65,25.923906709933988,10.97705269500759,-41.290150931980016
10.7,26.069878080227443,10.736185352228432,-41.87444084678692
10.75,26.923678479662183,10.232834842015535,-42.359790452830644
10.8,28.681495887053448,9.55494798407062,-42.39274176263327
10.85,30.208516416442002,8.789980979551267,-42.441129120497195
10.9,31.179117003757458,8.628520161774539,-41.942504666996214
10.95,32.823885694827304,9.680334917961893,-40.971414922209405
11.0,33.34777964452876,10.019095098788318,-39.22839667365869
11.05,33.920865145632064,10.225222994929274,-37.01850136302666
11.1,35.11316382891933,10.903585576793043,-36.14406391458769
11.15,36.00321667403318,11.402443026630172,-35.684209756396086
11.2,36.85401804726001,11.971036612931146,-35.47872762642068
11.25,37.56260847504134,11.978972147505747,-35.87459166600568
11.3,37.89444955607839,11.93337484387904,-36.143196368195454
11.35,38.197625993537876,11.966589890697772,-36.52712348125456
11.4,38.254830110656066,11.966728275615155,-36.81298592353116
11.45,38.40603602630814,12.15032994453027,-36.926115508400954
11.5,38.59200252252032,12.1872114351094,-36.97288799666789
11.55,38.86874554705931,12.311961771729898,-37.17168777384204
11.6,39.542720810796176,12.5981499956504,-37.438166422476414
11.65,39.71038617931964,12.611172351809856,-37.6537939246502
11.7,39.667047758098725,12.526156531886574,-37.966825372606294
11.75,39.74848144127234,12.503758191018955,-38.13471150325629
11.8,39.867107459971784,12.595473820254218,-38.37083317157064
11.85,40.019314487996866,12.61021402109986,-38.50832023580623
11.9,40.369854498694025,12.713424991881173,-38.569013938113294
11.95,40.787055246824465,12.773599764921993,-38.55762303897014
12.0,41.17733906859035,12.796847585262615,-38.524094369252765
12.05,41.399300373316386,12.89064923855674,-38.627224099885936
12.1,41.51303868445478,12.997866891024419,-38.75523933413366
12.15,41.45671031338148,13.113566516086479,-38.86084347501403
12.2,41.38475741480321,13.220671325371397,-38.95158604047062
12.25,41.19391022600016,13.300698430761177,-39.027288311249016
12.3,41.04674970268139,13.520455158095498,-39.102786749597925
12.35,40.92177347189503,13.634708748290882,-39.08799933273368
12.4,40.85419050913902,13.671307701018486,-39.02566781095475
12.45,40.82755399273823,13.771490767486876,-38.975900037981695
12.5,40.75518956157212,13.85201501568717,-38.938022138904905
12.55,40.67712789411625,13.973532218835214,-38.95477571052198
12.6,40.725254057190675,14.017775263687689,-38.98951449237208
12.65,40.8061006557822,14.050547296173663,-39.03520843993151
12.7,40.79155130457095,14.045488281897564,-39.03966854195028
12.75,40.836095189181904,14.112279820910912,-39.036725379447354
12.8,40.86730254460432,14.086259647697727,-38.987345243391104
12.85,40.84218454388224,14.091956724493082,-38.95801362786979
12.9,40.89256750523109,14.112682852890684,-38.93894582810639
12.95,40.983736372138345,14.1035067529185,-38.894228805300074
13.0,40.96643696748682,14.022370248512695,-38.65990160368287
13.05,41.13239807945916,13.98435549353951,-37.97972817378049
13.1,41.17894130900239,13.993255168874278,-36.51710462734885
13.15,41.30913313372173,14.835555662582196,-34.97017117821395
13.2,42.0387453391866,16.473957742556184,-33.98244094385064
13.25,42.70939430738566,17.477160117456435,-33.230827700411886
13.3,42.83119178171796,18.59940386145259,-33.92074349771228
13.35,46.6354760266933,20.249693481651157,-34.90306624255227
13.4,50.694570721967615,21.954071721642617,-35.918696653147734
13.45,48.77378764306551,23.411148210015234,-37.5769305061003
13.5,48.93179899077979,24.449636092204592,-38.65988017327028
13.55,47.940186710316055,24.77102733067872,-40.30720709122485
13.6,48.11130568277585,24.752066233504628,-41.22529908672345
13.65,47.434791157458456,24.262285161783954,-41.21631720202617
13.7,46.574456450694726,23.73183816964898,-41.02620918690586
13.75,45.87254967096456,22.741394134826567,-40.81729186247691
13.8,45.97572369476844,20.831863992027404,-40.36337939622789
13.85,44.835888202517275,17.9648915675267,-40.135590368273064
13.9,44.2200885460555,17.016940066517215,-40.67874489270537
13.95,45.253207364149624,17.70631607828397,-40.23835701988469
14.0,44.83232991888675,17.603111275851575,-40.00929299882374
14.05,45.09468976706118,17.464962292996717,-40.435724612356246
14.1,44.658676318036925,17.066217574785153,-40.58957756646573
14.15,45.2090723554393,17.75078308981124,-40.75978174063557
14.2,45.43079411822707,17.70988820447964,-40.595802602011936
14.25,45.27393985466228,17.469516817935787,-40.620661744835544
14.3,45.64874831984907,17.82522110812455,-40.67449475142855
14.35,45.716889886338244,18.04254215536854,-40.849307367571264
14.4,45.565071515256385,18.240181042948706,-40.670731517422574
14.45,45.59875353988708,18.17510141390622,-40.39589945919318
14.5,45.158092025688774,17.865919252694507,-40.40590573685107
14.55,45.02253472402077,17.90301530981384,-40.493114198716405
14.6,45.03854292830053,17.990296918820114,-40.64994617754617
14.65,45.55600536505759,17.875054458693796,-40.79338260281334
14.7,45.87992386304886,18.039375923642293,-40.9267365778037
14.75,46.35638791142009,18.506645738267213,-41.31020479065497
14.8,46.10338028186654,18.368546283313098,-41.86487678326855
14.85,46.88247329395813,18.747915702299156,-41.9516789399516
14.9,46.480821081950154,18.586816422298508,-41.489155623118585
14.95,46.114888346447366,18.53737551412615,-41.27975054522762
15.0,45.97682144372377,18.644891975729735,-41.28122752339918
15.05,45.646585118188,18.81967046460637,-41.22632933162765
15.1,45.22931648413041,19.156475405688514,-41.16773497857948
15.15,45.15099564829961,20.100984938588606,-40.898207571921205
15.2,44.78376856797627,20.363674241506963,-40.020214664169096
15.25,45.001742179333974,21.03422015656913,-39.74207050133509
15.3,44.24764545250791,21.43952038992616,-39.75673704992962
15.35,36.07681322491868,18.886945561842307,-40.0845785576823
15.4,35.2786612828627,19.069031410183875,-39.84919864215508
15.45,33.82600072623975,19.354800897255124,-40.10536757025285
15.5,32.99734453380818,19.96207343677204,-40.35330259868023
15.55,34.29725395202652,21.41957768231663,-40.49370494613467
15.6,35.452022955907076,22.655303738209934,-40.44476562862826
15.65,36.14924097129391,23.24056960705599,-40.197056875038534
15.7,36.595497704355765,23.45218169081943,-39.9058065563107
15.75,37.576442598765894,23.598272155639602,-39.42951049609521
15.8,38.69553822016579,23.705653122407757,-38.77573891697109
15.85,38.065014925243695,23.535539374265202,-38.68082396246273
15.9,37.55847124993895,23.56023627283643,-38.75349022718068
15.95,37.139621187866695,23.533494193022324,-38.90544797695586
