Time [s],Flexion(-)/extension(+),Supination(+)/pronation(-)
0.0,7.975176075348747,0.40924923170607874
0.05,8.007119501658984,0.534672954903401
0.1,8.040621707720419,0.6651994857279631
0.15,8.073001666329963,0.7916594023215288
0.2,8.098507487151396,0.9023792842859473
0.25,8.112827185149238,0.9340855630577208
0.3,8.132958503029013,0.9276451771117983
0.35,8.21395943899187,0.9259868881299468
0.4,8.257345368923216,0.9058791128401539
0.45,8.290089205490531,0.8846117453829432
0.5,8.334003427971753,0.8751559871421811
0.55,8.314074404362243,0.9213655133140506
0.6,8.270661348210327,1.0166179453968494
0.65,8.239648340282022,1.0571542365322735
0.7,8.215242763655146,1.0814209729043744
0.75,8.170037346323255,1.1287555469001644
0.8,8.119521166454518,1.1258979761703438
0.85,8.100638307621132,1.1159704964939
0.9,8.097929920447456,1.1189017410116981
0.95,8.108244501144407,1.166906155432004
1.0,8.166173692847407,1.2123519958136248
1.05,8.173218537915888,1.2036723695364773
1.1,8.072146186246377,1.1426153610680994
1.15,7.846006369822081,1.0717459874811457
1.2,7.190770656715993,1.3293013311577733
1.25,5.93115621054348,2.7672463504106535
1.3,4.292913375125866,5.788271255439624
1.35,2.663400025788787,9.423976380721824
1.4,1.4932011832475454,12.938431997672085
1.45,1.1652390712395775,15.9228019688383
1.5,2.0186606656710615,18.915415983311416
1.55,3.738621611588404,21.882849332926405
1.6,5.781793380331094,24.664863814276387
1.65,7.961293287008361,27.322164120586947
1.7,10.090013630413507,29.692353238418573
1.75,12.04266631707691,31.58948281057646
1.8,13.730979444853167,33.196721225094265
1.85,14.803106708231766,34.47499065546201
1.9,15.016096005218198,34.955109577417765
1.95,14.57469540923525,35.19504245631951
2.0,14.003095141209391,34.88443714305351
2.05,13.295257327955225,35.57657439307476
2.1,12.384067645158009,36.55507328134704
2.15,11.481602386321761,37.717240853957094
2.2,10.846091917831748,39.32314596439939
2.25,10.288008005643869,40.25367420976572
2.3,9.571924087614981,39.191060111470776
2.35,8.365908831896023,37.843833311845124
2.4,7.0518835085192855,38.13434024205929
2.45,5.133556964398045,39.63011448011824
2.5,3.0688399994887616,41.068961180931616
2.55,0.30306826153375677,43.00481667399185
2.6,-3.1091268607253726,44.27630648468669
2.65,-7.079993009174556,43.06091132621927
2.7,-10.806811644054637,39.078385008386086
2.75,-13.282364785308694,32.67751243328914
2.8,-12.891106561606234,26.695968032601506
2.85,-10.337778569933356,22.87279840822958
2.9,-7.009132088475435,22.300028779880748
2.95,-4.942302426384623,21.947596549486725
3.0,-4.269506505990917,21.857850664056873
3.05,-4.54030918792163,22.22440008934797
3.1,-5.562478147208333,23.08202000203387
3.15,-6.66358728491874,24.113541494583373
3.2,-6.6248609547850945,25.597983076271767
3.25,-5.45006996529414,27.08072504969084
3.3,-3.745357965065412,27.38346880569822
3.35,-2.1457581812903723,27.587703608586494
3.4,-1.071075696270244,27.397188991544965
3.45,-0.5423887336835296,27.667041684019633
3.5,-0.36236154954073646,28.99008121469188
3.55,-0.4321461257234392,30.352798782868724
3.6,-0.7392433587040365,31.20038190448235
3.65,-1.380397933918381,32.13695067962871
3.7,-2.581533903119945,33.52959089037351
3.75,-4.644205142822565,35.47603031721514
3.8,-7.170336546692154,37.387874968147706
3.85,-8.712104900842101,39.021546231610834
3.9,-8.782613775932239,40.36550446597446
3.95,-8.201592684829878,39.58845180135436
4.0,-7.763596045481874,36.128387073008334
4.05,-8.052298684487456,33.4737150844989
4.1,-9.044560401534579,34.145620288061735
4.15,-10.574888262628095,35.81763398115799
4.2,-12.324280863814616,35.92690695984236
4.25,-14.223049554741538,35.321338703925704
4.3,-16.27300835548391,35.018603088334295
4.35,-18.420436003481274,34.7585587054305
4.4,-20.206428569399378,30.878786088942594
4.45,-20.369782272539087,21.924694867187263
4.5,-17.57682311935354,13.587984639822146
4.55,-12.017839347289554,8.422548951840858
4.6,-5.275007272246301,6.475038546526918
4.65,0.1188275140963532,7.148591791503583
4.7,3.5707416058387538,7.264574339811114
4.75,5.366338784763609,7.395061544440117
4.8,5.6603477810936385,9.627928160571482
4.85,4.8791475926201056,11.579658092159258
4.9,4.2630819325760765,14.143910355326584
4.95,4.108848200776591,16.271781812502386
5.0,3.794440379979699,16.24503963685693
5.05,3.2445794683179248,16.152763383661945
5.1,2.601274689560322,17.331176047601602
5.15,1.927495247094452,18.81987787562583
5.2,1.4004275341674641,20.312997330027983
5.25,1.2353944212847117,21.229038943099347
5.3,1.1228428299206525,19.28478396398288
5.35,-0.2902820922375648,10.78538563385023
5.4,-3.122691865936227,9.212221594810996
5.45,-6.9865621317223425,10.215874300772168
5.5,-9.27495698006472,11.120496439275266
5.55,-9.82600076730504,11.010632707616447
5.6,-9.056213401786101,11.945580581047093
5.65,-7.840101620008694,14.757132787516051
5.7,-5.718459460552286,20.55812381122913
5.75,-1.9830916066961217,27.446503251177326
5.8,2.9787450303120133,30.1473533497621
5.85,7.318328051692058,27.423786194851772
5.9,10.46868457196171,24.316921440387546
5.95,12.495711348257423,24.30372078551721
6.0,13.411560991057405,26.165420915906417
6.05,13.006551434764846,27.50812110827666
6.1,11.264776340968368,27.818184305932267
6.15,8.285106895464777,28.11770463629819
6.2,4.64462386951096,28.66457353660231
6.25,1.1121615456319893,29.237512881956278
6.3,-2.565949290370245,30.817621923100482
6.35,-7.156042371074646,32.23800419362867
6.4,-11.9644989274797,31.476533412383457
6.45,-16.040600700856327,29.94238202603509
6.5,-18.575064031201595,29.891937401144396
6.55,-19.39134507804069,30.138647654964387
6.6,-18.500170398377165,29.066724409837413
6.65,-15.98193772971825,26.65232271674718
6.7,-12.537716812649819,22.5308988744775
6.75,-9.559296767228664,18.219739389266742
6.8,-7.809175119002017,16.00218594281204
6.85,-7.989690102228399,15.117600736928733
6.9,-10.406396742117401,13.137361487842764
6.95,-14.367830671748356,10.102835349319733
7.0,-17.359345072915215,7.976385474831992
7.05,-18.836919171667528,6.377405342083797
7.1,-18.48369677569541,5.716942246058477
7.15,-15.765496172881626,4.562000645749039
7.2,-11.705294734626985,3.692967818311477
7.25,-6.87383268296813,3.9224056736203736
7.3,-1.9491319066374602,5.001556721174775
7.35,2.82804246384463,5.334310504839407
7.4,7.31192468928497,5.114546013655708
7.45,10.944113127481884,5.3790324413795965
7.5,13.334496452619057,6.0684599375806965
7.55,14.624719868700955,6.574641742721266
7.6,15.261099637127348,6.699237353209257
7.65,15.635413033665817,6.68627448022306
7.7,15.795288212503504,6.707457148040984
7.75,15.549185955405385,6.620299822253138
7.8,14.915716750539277,6.146967995270413
7.85,14.148132824332725,5.22127206098465
7.9,13.33693439008712,3.909040993106508
7.95,12.445387308667609,2.3202954148372177
8.0,11.42053202632714,0.8404007685138793
8.05,10.280766593598887,-0.32194140150565953
8.1,9.164147120513961,-1.200713302047277
8.15,8.1415954874848,-1.764961769331319
8.2,7.123328802671529,-2.129023979314489
8.25,6.165298441217203,-2.493273718902737
8.3,5.454656745575187,-2.7024668667291585
8.35,5.049913589321541,-2.6577754501536215
8.4,4.89087098077507,-2.5697654896546696
8.45,5.002366974573263,-2.6316769645698654
8.5,5.364188913270585,-3.061851737582998
8.55,5.383796739786023,-5.065135838254558
8.6,4.344135607469598,-9.896001167943625
8.65,2.678276173767213,-14.546723096306163
8.7,1.576417276297637,-14.169453280615352
8.75,0.8002725963784202,-12.181178043461806
8.8,1.0744984949008327,-8.888324926121369
8.85,2.322897668415769,-5.234592475500476
8.9,4.714177128178888,-1.9160061042172498
8.95,7.149817589267832,-0.33091428903327924
9.0,8.186582300631137,-1.3116555993176677
9.05,8.374436336140121,-2.22697165760906
9.1,8.744579219010694,-0.9714289881784234
9.15,9.449163898007066,1.8336612256156626
9.2,10.153915043929056,3.8305998390230465
9.25,10.651028150065947,3.9958971955061866
9.3,11.078052632441805,3.4388150091822585
9.35,11.408592829859618,3.023909056702504
9.4,11.472246772134957,2.73014025828172
9.45,10.819915417206955,0.739897134712338
9.5,7.793571326080022,-7.558947083787289
9.55,4.718050758023465,-13.280635500729602
9.6,2.54016535471208,-12.43433461552726
9.65,0.18791112235268373,-11.595355922559325
9.7,-1.6176645609832843,-10.62454390432475
9.75,-1.394963339975134,-8.849417860506545
9.8,0.18985793162245454,-8.590927482312885
9.85,1.7418000478478797,-8.794724598752873
9.9,3.6053132915433044,-6.2032335894540696
9.95,5.810644724182426,-1.8317099979774571
10.0,7.919764465656847,2.5932065975889707
10.05,9.856408746846213,6.060344877409001
10.1,11.737038656816056,7.926182090545772
10.15,13.54940340168518,8.4794649347609
10.2,15.152849956230872,8.535849522108135
10.25,16.44233823999265,8.625003158427448
10.3,17.423575806067966,8.647162814985307
10.35,18.20499011824278,8.804556436170829
10.4,18.749181102770443,9.050842906433486
10.45,18.998623859590527,9.16960017591719
10.5,18.806158774505327,9.118227921186547
10.55,18.157660748462657,9.04241575096552
10.6,17.24063251589997,9.247588972130773
10.65,16.112225307525215,9.441028233661893
10.7,14.955809345572264,9.529228744392764
10.75,13.908223100294792,9.696146678107432
10.8,13.00500925601572,9.807614350607137
10.85,12.281218025151682,9.82045715546702
10.9,11.752427642426644,9.64832312758825
10.95,11.449527200903193,9.140049421341612
11.0,11.424296083220092,8.347810084175121
11.05,11.671744638647583,7.522016237400522
11.1,11.475361222958758,6.74557131674724
11.15,7.218339841972401,0.41684192507233636
11.2,0.15114330061753292,-6.828997713648776
11.25,-7.875631705534757,-12.625427886465054
11.3,-14.63514153196967,-15.528736443098483
11.35,-19.131466884903208,-15.425921188180947
11.4,-21.327554953166704,-12.48123129138166
11.45,-19.46523643887845,-7.745501811361827
11.5,-16.657053135379073,-7.1819677900760075
11.55,-13.688531232641672,-9.030082964475971
11.6,-8.443811849708533,-8.330481804525277
11.65,-0.9158858800458565,-4.0453555765566165
11.7,6.536512976523562,0.21442525042122135
11.75,11.455802353340303,1.8344995589470954
11.8,15.591828379050458,2.7153506361630844
11.85,19.255854737070266,2.76767119228857
11.9,22.3463959471137,2.130080571523035
11.95,25.02542085379072,2.7245309223590697
12.0,26.949572213402224,4.764682379837781
12.05,27.641217656137844,7.141966717345894
12.1,26.597765093158323,8.822312229477003
12.15,24.259654719675762,9.797572229690466
12.2,21.595773119076647,11.069148762892091
12.25,18.6970878497087,11.822879308206765
12.3,15.337495444902686,11.981664685141132
12.35,11.758092854930952,11.974248420002642
12.4,8.340373117880972,11.631316421507162
12.45,5.552720389869565,10.985454848848576
12.5,3.140778806578195,10.006104731213274
12.55,1.4845019697232709,8.412528563778396
12.6,1.0329696180567634,7.6779941321600225
12.65,1.5656605918174966,7.611496440818017
12.7,2.647560264255297,7.428162357716067
12.75,3.984300839601447,6.6698548394024275
12.8,5.397262110468743,5.899990688744544
12.85,6.650459055877412,5.152081283998532
12.9,7.55833101251689,4.51114454550248
12.95,8.046097400146097,3.715256925163716
13.0,8.155500730508619,2.7849372951055176
13.05,7.791047837128609,0.8009982164875661
13.1,7.095203507959075,-1.374037208926644
13.15,6.313084062897843,-2.9902332056024856
13.2,5.3608154804468855,-3.8109109920505997
13.25,4.834236236476119,-2.8930464320850224
13.3,4.208461960880307,-1.0736168598900238
13.35,3.3745886225815473,0.5574553125490493
13.4,2.7374251961948457,1.8573004179634627
13.45,1.998796502341677,2.438950792973803
13.5,1.3438916627764934,2.9360222200967754
13.55,1.1025664121290544,4.023996920051615
13.6,1.1906190711908724,5.31666626731983
13.65,1.5116546293359316,6.214883197124054
13.7,1.9191605488863532,6.519273201431021
13.75,2.3236274073385306,6.38551868117958
13.8,2.6962118387540106,6.034915364692576
13.85,3.0403260968170103,5.523569714492753
13.9,3.380654820562361,4.924981418916994
13.95,3.577008703366772,4.604370597064384
14.0,3.491006465137618,4.509787259581582
14.05,3.157451551516327,4.695328045877357
14.1,2.819444510577861,5.668675802284934
14.15,2.9021848801392967,8.924520471199394
14.2,3.084325724522013,13.833378833219093
14.25,2.9754451346558035,18.636930254865838
14.3,2.6655531808326662,22.9469856821157
14.35,1.9531749803338372,26.687948641199434
14.4,1.0387101052113434,29.715980030522093
14.45,0.39978942669250817,31.917908771591094
14.5,0.1733287542243475,33.47178151002592
14.55,0.30706948641880605,34.43480985906038
14.6,0.3396273362245061,34.42547577118262
14.65,0.3305200652912196,33.14763696725879
14.7,0.4514119062004997,30.9572893890498
14.75,0.4217094072509525,28.205495549407633
14.8,-0.3507229889624394,24.84775512092632
14.85,-2.134141935937171,22.019477765653683
14.9,-4.9488489726934635,21.342267003137337
14.95,-8.023252707725266,22.56228691083895
15.0,-9.584033294196361,24.700963479367594
15.05,-7.546375778127175,27.642830278328166
15.1,-2.2371632251118823,31.9972928384919
15.15,3.9402760751731227,34.080881782304154
15.2,8.997876807811528,28.409441714663476
15.25,11.450460747108128,16.964116746339215
15.3,12.13092722210536,5.293827666426173
15.35,11.889845841335351,-3.306462279837639
15.4,10.486094736510925,-8.939664608685042
15.45,8.617053157440719,-11.495082318109029
15.5,6.754864203424391,-12.168908236471866
15.55,4.6837397304276225,-12.276643641907869
15.6,2.1727083374521072,-11.16486108822594
15.65,0.1381439128977615,-8.028383675009028
15.7,-1.0351797471004724,-4.621486419218877
15.75,-1.4176718957681749,-1.8384196494733882
15.8,-1.2097189031070121,-0.8356829297606029
15.85,-0.41895572767416367,-1.1782724360479226
15.9,1.1763710761617219,-1.6730915053384818
15.95,3.647758987545474,-1.8239546127261972
16.0,6.6759725872221996,-1.5460576375369777
16.05,9.80339110204236,-1.3505661178935757
16.1,12.75880734210619,-1.4526450045711257
16.15,15.487514841581199,-1.8605587719016334
16.2,17.9571859345837,-2.5708187591635316
16.25,19.957116685889346,-3.759741620324541
16.3,21.283258919024128,-5.446269325370908
16.35,21.822629909723876,-7.299647193908957
16.4,21.526210454264184,-8.93698202400715
16.45,20.473716251889545,-9.99957137161027
16.5,18.885862677575776,-10.18018515526341
16.55,16.954391145686717,-9.617237945301836
16.6,14.730725146551523,-8.663211221476269
16.65,12.3593418029166,-7.758153303564793
16.7,9.980191668994781,-7.134804986544815
16.75,7.694177290694338,-6.837460634280563
16.8,5.612355436015348,-6.6897226190069965
16.85,3.7668947606845093,-6.753965231660951
16.9,2.261566892092091,-6.868693480011632
16.95,1.0448251719086519,-7.030351653304765
17.0,-0.9533282897857721,-7.851332120845724
17.05,-3.1705804550935817,-6.169021220619091
17.1,-2.6856322499465106,0.1191567955577079
17.15,-0.8055614506130768,9.723029595767668
17.2,1.9559609256289716,19.102756037455418
17.25,4.514144302873433,23.815527208178423
17.3,6.289932796174742,21.513144905375256
17.35,6.683123558751434,13.964069922730996
17.4,7.50412146296669,8.13846524684752
17.45,9.992341461022429,7.797073966602647
17.5,13.535520045773476,9.872486036802076
17.55,17.029628327741865,10.490327588206828
17.6,19.968616451111185,9.270056670270916
17.65,22.047070999510044,7.756584115527355
17.7,22.92870245453098,6.840266587031093
17.75,22.695531052068866,6.462374841108407
17.8,21.766090202151553,6.813257032797356
17.85,20.53977082784686,7.175770021235283
17.9,19.238654417764256,6.818767506050597
17.95,18.050938551127008,5.67528742604066
18.0,17.06419229826783,4.209617849334935
18.05,16.09710911115297,2.3835502008853156
18.1,15.164854250499129,0.12068941382216278
18.15,14.394991361371703,-2.1223408762139906
18.2,13.763638115328089,-3.646881330986603
18.25,13.225545608223975,-4.132173888511295
18.3,12.857961244020004,-3.32383730873998
18.35,12.615502200323798,-2.098296241764085
18.4,11.845932180148857,-1.5454252154941146
18.45,11.059681577618935,-0.8399944145625249
18.5,10.412311023342433,-0.5969001621157041
18.55,10.005392170463411,-0.8976137104271015
18.6,10.385526263923678,-0.5903851503517624
18.65,11.042986298571527,0.03795293465756704
18.7,11.718445259399083,0.9667559114331146
18.75,12.346622830488688,1.9978847588516824
18.8,12.405707443044996,2.6324689822831155
18.85,12.115168316233234,3.352710249361353
18.9,11.156909511859306,2.3435445003189024
18.95,9.752477258178807,-0.14895468931927325
19.0,8.522630997751024,-2.266324642748618
19.05,6.984779198201366,-4.827779767928517
19.1,5.9326156124723815,-5.603425554955645
19.15,4.962179096309087,-6.46232194466037
19.2,4.43268784404617,-7.03632015869769
19.25,3.8643915830105455,-7.723162360901269
19.3,3.0057311712038715,-8.848661936276331
19.35,3.0063286747078384,-8.90913858261527
19.4,3.5547782516235014,-8.742964077627951
19.45,4.520949697572599,-8.143731195804419
19.5,5.669540363482299,-7.116084332703023
19.55,5.873599116535613,-6.804116942085102
19.6,5.577674278887006,-6.744194207863928
19.65,5.302279658674432,-6.638926898782051
19.7,5.147706492468956,-6.743489706547672
19.75,4.6561455776741205,-7.64855216840089
19.8,4.270096064100228,-8.12577504185258
19.85,4.538828299728268,-7.089828121621051
19.9,4.7592691058705,-5.805994417940997
19.95,4.975379932399887,-4.274017197904325
20.0,5.373856785121931,-2.3249447687250635
20.05,5.650375413674065,-0.9915502093704791
20.1,6.042011342887197,-0.10477505531534814
20.15,6.45655453244555,0.32330180995265245
20.2,6.987216000131526,0.8780372688704197
20.25,6.961459896168206,-0.44012237951077315
20.3,6.683017939196068,-2.197412004318383
20.35,5.721648616710663,-4.303245911516413
20.4,4.419785404286492,-6.7344123722875215
20.45,3.850983362958872,-7.4017777593949825
20.5,4.215240512292278,-6.535713688940099
20.55,6.33935850365477,-4.005416755172198
20.6,8.088756269915082,-3.294260757412514
20.65,8.775033005937107,-2.950543483276136
20.7,8.222234399575363,-2.6131455821451577
20.75,6.731612124876242,-2.6176866705281316
20.8,4.759531965031025,-2.8001874161798193
20.85,1.8477431663691228,-4.441091448816267
20.9,-0.368779111632369,-4.697944032076326
20.95,-2.362735073663856,-5.496419592216227
21.0,-3.612496028006031,-5.646797226888446
21.05,-4.607909987322456,-5.484186638240094
21.1,-5.22792512154978,-5.290265990901481
21.15,-5.98856765182628,-5.211572884562876
21.2,-6.124097136825506,-4.61650776174906
21.25,-5.941739810573087,-4.036932945009057
21.3,-5.832158354608292,-3.602490342832452
21.35,-6.078666729191415,-3.40391169762397
21.4,-6.340033000164579,-3.3124121073533916
21.45,-6.572817707590689,-3.537306148475493
21.5,-6.6984807630783,-4.075980251758899
21.55,-6.586848357001841,-4.72433073702389
21.6,-6.9686948720095,-5.662834519591409
21.65,-6.541786625151263,-5.114081868331829
21.7,-6.208771151539484,-4.607425362048913
21.75,-5.527465262483431,-3.700731698387554
21.8,-3.412966419204799,-1.1777716389816328
21.85,-1.6462739583741814,-0.6678433903613655
21.9,0.8007163319688442,-0.5579836215848029
21.95,3.388628988894954,-0.6381238031985295
22.0,5.78250476437858,-0.6003566833352522
22.05,10.681506781438012,2.2287157081587803
22.1,15.28406186500594,4.640450270785742
22.15,19.065826349115632,4.991725406909716
22.2,22.10610910761526,4.980591349892785
22.25,24.468105995334323,6.6055411116446265
22.3,25.39243292437228,7.434627718079402
22.35,25.07467645112338,7.513916380180815
22.4,24.73395607507577,8.407669382702233
22.45,24.497037495932478,9.779186497613415
22.5,22.966077510082826,9.260510585505896
22.55,21.51193000890359,9.198349392395011
22.6,20.30317942988826,7.537092104544023
22.65,19.732260469745516,6.897971658561752
22.7,18.878345727161467,5.468196664112068
22.75,18.554373426183673,5.028219431349559
22.8,18.705418571315228,4.832389126574599
22.85,18.7667188906088,4.049649110197707
22.9,18.952071075156027,3.3144892481007924
22.95,18.71860742860404,1.8800068077110101
23.0,18.72108659658457,1.1956815154249754
23.05,19.11339512330883,1.0614844642245118
23.1,20.085792686682286,1.6939265046282186
23.15,21.748065646955926,3.3607161754025117
23.2,23.87528124640699,5.940636608219386
23.25,25.311109288406588,6.538758501514742
23.3,25.433904900739854,5.293364596180806
23.35,24.828293808070224,4.177665030588242
23.4,23.591396885277742,3.7163720285349338
