Time [s],Anterior(+)/posterior(-) tilt,Lateral tilt left(-)/right(+),Rotation left(+)/right(-)
0.0,5.840216552051447,-1.8892195595616563,0.11388423849456379
0.05,5.869872407054356,-1.9066667561414974,0.13791875555484154
0.1,5.866832389428992,-1.9151029970240114,0.17307859074900872
0.15,5.8928061978759,-1.9135598890047583,0.2093917184032136
0.2,5.934240618286646,-1.9367047780071565,0.2587716638603565
0.25,6.026054820548894,-1.9533003683280776,0.30919533603336646
0.3,6.08345418158306,-2.0104140793728806,0.3543253414056751
0.35,6.170860235372321,-2.0591062282285684,0.3801271417836176
0.4,6.268926975881918,-2.0458084503067258,0.40432374079695965
0.45,6.306731744112421,-2.0788440947577635,0.4354133387930661
0.5,6.280738876709577,-2.1660467620221557,0.4662018458140825
0.55,6.253854894982351,-2.2336981439095895,0.48295993032564516
0.6,6.289861333740895,-2.2427124628354207,0.48426212627846466
0.65,6.3004863548694345,-2.2064236211748485,0.5075409985155365
0.7,6.318546109476412,-2.1701574678774347,0.5338459735538545
0.75,6.311495798244656,-2.1867380004444517,0.5781468235988785
0.8,6.3242846501012675,-2.194276758436906,0.6374964772872855
0.85,6.287445246036255,-2.2209497360224444,0.7016631155181968
0.9,6.249790842183991,-2.255120964146051,0.7609355077342738
0.95,6.176142996175703,-2.2736720110986552,0.8239210874425371
1.0,6.091781701983604,-2.236159519291066,0.8950435294324594
1.05,5.936045518576521,-2.1398566045223473,0.9896691198263287
1.1,5.695100157140774,-1.9555502642725708,1.1022310996052103
1.15,5.349217917794311,-1.656134018284665,1.195392431769885
1.2,5.012979573559527,-1.437592438211735,1.3134623241117342
1.25,4.789947504552337,-1.4054098571174822,1.6132086753436585
1.3,4.622089152949446,-1.554723919813401,2.1245984491417658
1.35,4.4165855284457916,-1.8400946131272542,2.8830515771350878
1.4,4.242191923687657,-2.0851955531271504,3.9012888991857935
1.45,3.9421889829105083,-2.2170001815081006,5.144400710343223
1.5,3.3976256086190313,-2.381149937864571,6.573492163177429
1.55,2.876830146177135,-2.528744778467617,8.100518805497337
1.6,2.3647553848172405,-2.816515350733646,9.602137195848234
1.65,1.8891430748531521,-3.2218988730806286,10.998036257542571
1.7,1.511322231575238,-3.7752165992372477,12.210044807121738
1.75,1.3530067905457195,-4.4062396788698,13.239098226019664
1.8,1.3772537127561082,-5.150362568043394,14.207208683801866
1.85,1.4142140633558828,-5.932689726864783,15.272968052865043
1.9,1.517692367679459,-6.570326211035394,16.50331164414732
1.95,1.7113895929909586,-6.897278873641696,17.889559923479332
2.0,1.7693234779684137,-7.009343920322667,19.406753485300236
2.05,2.0946813273618754,-6.617009852091633,20.87741072021315
2.1,2.9640682115191614,-5.818456669409891,22.023722129675257
2.15,3.693865901619313,-5.012098546475243,22.671784967379963
2.2,3.903666240306108,-4.3327703496612155,23.02506061808418
2.25,3.574006561595864,-3.4019987792421778,23.366994845772297
2.3,3.300174356891172,-2.106341508530986,23.6453076641864
2.35,2.9548354116273794,-1.4407513014077349,23.90634240813337
2.4,2.219334818931487,-0.9451140475700951,24.187174726068115
2.45,2.177922031090011,0.30811424585426245,24.51278991360953
2.5,3.0670887013042387,1.5145203578005049,25.075485718669942
2.55,3.848556576864064,1.9826526799122903,25.64635991805176
2.6,4.260701074183516,2.338235760893715,26.03955226885756
2.65,4.4660907550287545,2.9439080999362406,26.23239245643756
2.7,4.392116556842586,3.4794431707942675,26.175480929052444
2.75,3.9608356668418647,3.7546130151609303,26.067191717559663
2.8,3.045227055233641,3.8911403441512986,26.03548938059131
2.85,1.8644048333192775,4.103975268607826,26.116129328287727
2.9,1.267419152413754,3.8675133217744495,26.41840853849806
2.95,0.838806441310238,2.9253921133528387,26.764341775676733
3.0,-0.008761098520149061,1.8059981537455572,27.370349977666987
3.05,-1.1192917743230504,0.8492164795698834,28.191893920345105
3.1,-1.6427867797444713,0.08307946120695445,28.585183574790992
3.15,-2.355532102127545,-0.582958164988507,28.582426792258172
3.2,-3.072606412844085,-1.199774273290285,28.886782763653923
3.25,-3.4532582780525987,-1.8090343615033408,29.21712441269203
3.3,-3.8519441277444404,-2.362378839806824,29.620498267751763
3.35,-4.212397448150798,-2.779937382825958,30.27147708817599
3.4,-4.596771301830206,-3.2595851630013466,30.86525931578101
3.45,-5.007346627001358,-3.581678801995753,31.41122691952136
3.5,-5.178030310904164,-3.6032007095225156,32.10162690310779
3.55,-5.090664851659855,-3.530220340610637,32.93867618848132
3.6,-4.914115453859056,-3.2388621495560073,34.03446007286394
3.65,-4.847660513860589,-2.5808371198634434,35.478571852783425
3.7,-4.765488426823871,-1.7234096770888037,37.19642515212508
3.75,-4.349570836576,-0.9820771599489573,38.81064920565338
3.8,-3.2189554076441027,-0.44742909722997964,39.888022365699065
3.85,-1.539424816233883,-0.2236851204347791,40.50299647837025
3.9,-0.10412750285711302,0.2951202610299258,41.38152577004112
3.95,1.9233179824986224,1.1362429000083853,42.799605136862844
4.0,4.332700237470045,1.5615652685146633,44.25113873521425
4.05,6.307110777534664,1.826378894235892,45.61803437603445
4.1,8.076111677837078,2.263452815785492,47.191070439372126
4.15,10.040306739359467,2.7577951285674835,49.12277300515416
4.2,12.062078991658943,3.200259276660225,51.28186414137115
4.25,14.113537521087187,3.7434923508554503,53.62604324181247
4.3,16.235359549469393,4.2420539631386545,56.07792289737877
4.35,18.372764778278373,4.5016785369535,58.57997571142393
4.4,20.211610929366163,4.269330115380094,60.8286937049208
4.45,21.416926901074003,3.6161955787624303,62.60076910405908
4.5,21.726206545030404,2.9281940687022563,63.99274473634171
4.55,21.300782078543655,2.3714524384688382,65.27684096817283
4.6,20.455883039731294,1.4666501501681852,66.27623177474389
4.65,19.289376460628006,0.04224913621579287,66.8433126149622
4.7,17.711034626614506,-1.2673355894093674,67.60140246709409
4.75,16.280584551247543,-2.113107256238429,68.96819495205607
4.8,15.165731866917925,-3.1344115897908105,69.7450039665952
4.85,13.071587627592697,-4.2281722533169175,69.79640709983649
4.9,10.896146317473262,-4.613309567721343,70.22752981959744
4.95,9.153800543975416,-4.825522706334498,70.77113839467823
5.0,7.550835577280566,-4.911466962253328,71.47500654054026
5.05,6.211757450767399,-4.839472302916072,72.40169267783702
5.1,4.810833355453618,-4.935686124239077,73.18771304846847
5.15,3.164502679047604,-5.122305714781625,73.89244117913002
5.2,1.474734110026333,-5.3737912721459375,74.60242018460777
5.25,-0.12339514256726353,-5.879423160923504,75.28758213839009
5.3,-1.5890251404401257,-6.795823646704375,75.81976444275432
5.35,-2.6426355357179907,-7.677002885469064,76.40592151561893
5.4,-3.2012948236320122,-8.446785900033474,77.11938497147307
5.45,-3.4415341473462067,-9.33321999812969,78.22806285505499
5.5,-3.6141240774250094,-10.092147069768245,79.71035497108686
5.55,-3.4686691438196062,-10.37303356603521,81.33353148157917
5.6,-2.8077576827073343,-10.33862110213202,82.72535251329198
5.65,-1.6888612991281937,-10.4370542284508,83.55362477927018
5.7,-0.39769704243937276,-10.642355693924282,83.89773494149334
5.75,0.4358030849913859,-10.584515284522283,84.08346092742066
5.8,1.6862959577518526,-10.116095397026331,84.44768674644277
5.85,3.41151848250185,-9.261521767448736,85.01780362387741
5.9,4.778267472235545,-8.381011005788178,85.75460749370137
5.95,5.9049177490104094,-7.528769025364966,86.53325310528646
6.0,6.942424884875663,-6.604011902900531,87.20666246678756
6.05,8.00235443206864,-5.563900734944518,87.75480930686486
6.1,9.420210970701248,-4.150837525696179,88.34903470003813
6.15,11.148341549405181,-2.4743374559604945,89.21935609648101
6.2,12.546721972411428,-1.1435531920578237,90.20441544659705
6.25,13.419481662301113,0.20088848497114778,91.03483643286158
6.3,14.095257938484941,1.5958746776197505,91.56347446285733
6.35,14.902089833087635,2.7090899648173057,91.71525752562357
6.4,15.653698403175708,3.0996708744356973,91.34356606464948
6.45,15.743604040321232,2.800236512588398,90.37703108632009
6.5,15.3571248202882,2.6184363815840217,89.13215874348484
6.55,15.329751653591066,2.8440756734464907,87.91007189057022
6.6,15.611180695763288,3.132290765013962,86.94707338305389
6.65,16.12678329132497,3.4218383936519,86.24325839911951
6.7,16.71045577224256,3.559452295038887,85.77523978503064
6.75,17.3812299413292,3.462680467080582,85.62450690584241
6.8,17.956796909837443,2.915463093914473,85.71197886963517
6.85,18.191435891590555,1.5659076154855138,85.75555230308538
6.9,17.801166659780705,-0.39666628008032184,85.51382699186695
6.95,16.737916560531506,-2.886204988357323,85.01284287932698
7.0,14.872647057908877,-5.51627318914958,84.56610753537151
7.05,12.82426271455389,-7.322078417641266,84.75890878170652
7.1,12.717800461125858,-8.90113839715476,85.20706113088573
7.15,11.973353810176434,-10.867879528668956,85.30934108139334
7.2,10.302912067130874,-12.571562406370903,85.03845566578876
7.25,10.043171147887621,-13.937869926071874,84.73566574441843
7.3,10.172411356166153,-14.833305739694474,84.80026233299445
7.35,10.648852838645844,-15.46197118532043,85.14764061556203
7.4,11.23609409543493,-16.048266029402868,85.57030882495638
7.45,11.8201210053711,-16.39274213476025,86.11903970976795
7.5,12.653460461174053,-16.704578490483083,86.81859970853822
7.55,13.490119260750566,-17.091987551668684,87.58030751950882
7.6,14.080138084484846,-17.375294007680978,88.28459988765137
7.65,14.40214586845482,-17.443779559654512,88.75786071644389
7.7,14.519322789094291,-17.247608477929152,88.87914423162033
7.75,14.63770135842488,-16.86886853338321,88.69353968463989
7.8,14.814243706418873,-16.4700736839856,88.29471187826148
7.85,14.871299519102376,-16.080455224217875,87.7198509047819
7.9,14.818172021800665,-15.70995175355483,86.96708113942007
7.95,14.731756641104907,-15.367320336524713,86.12294522613679
8.0,14.639255180345824,-15.110594274365708,85.34106237098253
8.05,14.367406941003171,-15.080532026046436,84.71678245034535
8.1,13.798806842008155,-15.212559380142846,84.33822655169948
8.15,13.32014981570809,-15.351952796839864,84.08291539232373
8.2,13.055216756180382,-15.507146113251952,83.87378913386858
8.25,12.94417522385024,-15.72152182476747,83.78128731677195
8.3,13.011494018980889,-15.920689826107322,83.78892124892529
8.35,13.244548444153338,-16.131922331834247,83.85935110851125
8.4,13.551109231586283,-16.41518863127162,84.01920277822614
8.45,13.820670517546848,-16.75754226969158,84.28629618031515
8.5,14.011783644100124,-17.08585071715624,84.61397753722039
8.55,14.108600934953726,-17.299057428162833,84.96424261789808
8.6,14.090382609779079,-17.306474678670643,85.29446325205998
8.65,13.975605052386635,-17.148467880468353,85.58920727376263
8.7,13.789624879123911,-16.78691110092983,85.90365517258637
8.75,13.471785006101555,-16.27518432128899,86.2687145738856
8.8,13.060511219503779,-15.682706003204732,86.70760771296112
8.85,12.68160242406354,-15.112377715116892,87.19849038451231
8.9,12.30448601330019,-14.605602608898952,87.65919376994324
8.95,11.936694460530536,-14.236646006966948,87.99045015001776
9.0,11.728353924974604,-13.98410079031674,88.18849238752169
9.05,11.660564152037947,-13.88585296926256,88.30312480729616
9.1,11.645540579477407,-13.906006418653131,88.42982945915222
9.15,11.671082055431839,-14.02589328155814,88.63960881030995
9.2,11.681740450175324,-14.22721359944909,88.88750828928424
9.25,11.733956631056616,-14.470756010566342,89.14822766266279
9.3,11.809427802718655,-14.764334089708194,89.35905808072654
9.35,11.89686873356503,-15.033983051050306,89.47753229531031
9.4,12.003989323466712,-15.277790719828545,89.47966974795101
9.45,12.188569029082672,-15.393426091116535,89.37537624935736
9.5,12.442655386765368,-15.30631175582521,89.19252147696695
9.55,12.635006617495186,-15.053910283414544,89.06247636454691
9.6,12.93329860811903,-14.783521133554405,89.10478150388278
9.65,13.436534890198338,-14.540581532906456,89.37029738599509
9.7,13.862733257719198,-14.4350141775411,89.79351796696616
9.75,14.188869058525428,-14.465807132525805,90.2938111361078
9.8,14.373787057846506,-14.651620229214476,90.82417836578446
9.85,14.271662937558215,-15.037033317623191,91.27783911848721
9.9,13.95433923368815,-15.509731638602158,91.66624913331296
9.95,13.546024819757216,-15.892203739530606,92.03246845327968
10.0,13.28529539563508,-16.05148204813893,92.43018639805017
10.05,13.228119669606713,-16.213174232539796,92.8849223527554
10.1,13.221211329898026,-16.413903303779957,93.45299840752742
10.15,13.305386264128206,-16.723589503051862,94.04502342489222
10.2,13.465141482225823,-17.109062881106922,94.58241445316061
10.25,13.68226349473337,-17.536868873572725,95.02738182967339
10.3,13.908757092677227,-17.83018908264761,95.40202816050676
10.35,14.110454332399843,-18.041117281209367,95.71188883797944
10.4,14.346044977702457,-18.21305270500321,95.97348596186397
10.45,14.58915024837989,-18.387579729388854,96.14581528189333
10.5,14.834330517821975,-18.60431004543744,96.20217431261352
10.55,14.955542942564334,-18.797974818173476,96.12826436481113
10.6,15.008436955502848,-18.922248404291352,95.9329737634242
10.65,15.031293501663443,-18.986195517375467,95.64349730631385
10.7,15.05529511802606,-19.020007582185084,95.29116705162807
10.75,15.041777035006772,-19.06009162758684,94.89794171640352
10.8,15.018310318545304,-19.047314438233983,94.48314727969918
10.85,15.003765179985894,-19.029103679249594,94.06251454869566
10.9,14.960346306991621,-19.01717954100339,93.66342154288031
10.95,14.814240809431865,-18.99031562881393,93.27148005884193
11.0,14.635328799780718,-18.881050686011122,92.9074797012575
11.05,14.409955589393789,-18.68736295170914,92.62750096971547
11.1,14.258083160907608,-18.276731900472917,92.49362459334829
11.15,14.139012335502263,-17.8813765709916,92.550735489492
11.2,13.920600068224022,-17.764981952433303,92.78332438948277
11.25,13.866701193812498,-17.86386264849162,92.98433656599691
11.3,13.933047600640391,-17.995613512920027,92.97263949205279
11.35,13.844257969368508,-17.986683797139733,92.65933679491654
11.4,13.607946471720412,-17.78017461850174,92.12732696647996
11.45,13.360763089025733,-17.50249980630771,91.53251893217099
11.5,13.26667060153302,-17.224094497047403,90.97958625582677
11.55,13.31939400037471,-17.053090235441708,90.49427900665509
11.6,13.47956588807107,-17.00840539076291,90.11548619958637
11.65,13.690697052428424,-17.14827882723878,89.80667376605597
11.7,13.886715721179478,-17.39314435261578,89.511988920825
11.75,14.045151936198959,-17.61212196567808,89.23522801920474
11.8,14.125668807845136,-17.744517095017358,89.06585962767512
11.85,14.124111485333609,-17.835819557023974,89.10685606028015
11.9,14.19886278243757,-17.809450511925,89.3554701097005
11.95,14.87613313260036,-17.717520308160847,89.78141707525563
12.0,15.569937068147084,-17.551131999270964,90.28453296716715
12.05,15.537373014032372,-17.554702880995208,90.7296307270524
12.1,15.260652426216664,-17.55763688457594,91.12154022333239
12.15,14.936346944725873,-17.521384792269792,91.4642742987306
12.2,14.634354553463051,-17.538102375056745,91.75685640364549
12.25,14.405883195933061,-17.639600624502194,92.01729378693854
12.3,14.228433712294374,-17.839652646396804,92.21128037563005
12.35,14.052107975353302,-18.11005955030102,92.31237682718177
12.4,13.914024436890143,-18.383359753354846,92.29104021419839
12.45,13.808353845055784,-18.580284794996405,92.13322774832204
12.5,13.677211192395793,-18.68235777969494,91.85169371078909
12.55,13.564063831798553,-18.666050058479875,91.4917308616497
12.6,13.525905016453061,-18.551336175637463,91.10559004219438
12.65,13.601702598006495,-18.400766240710578,90.72979568675647
12.7,13.7366865787986,-18.30875952481487,90.37219104998859
12.75,13.862886100982251,-18.2471224513493,90.00965924034563
12.8,13.908454977918652,-18.164549094124094,89.56602199209588
12.85,13.88232086975655,-17.971474173777285,88.9593915392018
12.9,13.734194403912067,-17.61701640321644,88.18636516001924
12.95,13.456902040853528,-17.14716047142407,87.287580004444
13.0,13.164833693694867,-16.617752589079462,86.36992945087512
13.05,12.892786308948011,-16.16431626355569,85.53143939752529
13.1,12.601524502284445,-15.963954430019204,84.89962639210664
13.15,12.174111740511458,-15.986183709067728,84.5894918615615
13.2,11.701975626623794,-16.001625305491004,84.44516267156123
13.25,11.221804751497487,-16.07821492840207,84.24723596675013
13.3,10.807330220355755,-16.207036911032656,84.00462928136953
13.35,10.495787220606626,-16.375033306336487,83.66959752712074
13.4,10.364998962585437,-16.483102249375214,83.28013512317096
13.45,10.363511821759598,-16.575949331490854,82.92609199328041
13.5,10.37987621969251,-16.55261796059406,82.6314496532089
13.55,10.364860263389144,-16.48238542989348,82.41287863908673
13.6,10.347590133832322,-16.45305008279245,82.31481083306376
13.65,10.22734503068119,-16.498795197727286,82.27781144190683
13.7,9.96724355523643,-16.517604255205026,82.28726871298754
13.75,9.676957320639833,-16.388143565884274,82.34275674493026
13.8,9.404910284300861,-16.121837250375236,82.46810489575091
13.85,9.20342898320571,-15.676662655015448,82.72055783402882
13.9,9.16472909369505,-15.018773587892916,83.12080250270289
13.95,9.33156768917121,-14.306843030116086,83.73081794353806
14.0,9.780753644131956,-13.720976791753488,84.60981514084693
14.05,10.573344567031475,-13.327780892206412,85.79963358200402
14.1,11.469169264358932,-13.25282365769181,87.31892512633029
14.15,12.065987084747345,-13.654462622129607,89.07670327637624
14.2,12.331361986634963,-14.153326369321793,90.82386734784008
14.25,12.418308218875826,-14.526109652822326,92.32153173159872
14.3,12.370541079193973,-14.778296543402536,93.52903048539008
14.35,12.15102066581378,-14.949965371092567,94.45888020952398
14.4,11.799676230839601,-15.069119028516061,95.10240210016227
14.45,11.13337793214073,-15.196913860850117,95.51626130813845
14.5,10.185739134139913,-15.556492330254862,95.74483157546982
14.55,9.092048144062751,-16.61562277225955,95.85370733420442
14.6,7.584478110873138,-18.70073659655546,95.68691340263493
14.65,5.306201292132679,-21.49516279552114,94.89497479668918
14.7,2.5780836245202985,-23.665899075841885,93.7709292672618
14.75,0.683029997506659,-24.31039616808267,93.25103389235032
14.8,0.3815385252114017,-23.986637639396797,93.85160285729421
14.85,0.7022140436773437,-22.921994149167737,95.35880592513284
14.9,1.0852017768934925,-21.023025998653736,96.93469429935496
14.95,2.620050675170147,-19.643788282828577,97.93779281597337
15.0,6.244441603372742,-19.80655484193642,98.22904867305402
15.05,9.527760464374415,-20.857302827455634,97.9852027328171
15.1,10.819252689619438,-20.56210146629757,97.37559669221443
15.15,13.673120719998387,-20.44372516730064,96.26180497621935
15.2,16.908656075277115,-21.007296146702792,94.59015315964969
15.25,18.427051879710007,-21.363335969568908,92.68860274084344
15.3,18.95445074545139,-21.266729029486477,90.57743261697519
15.35,19.021467534366604,-20.819233918429653,88.38634144819176
15.4,18.63535057593071,-20.540202061996567,86.28199031144823
15.45,18.2073317585903,-20.33213465716961,84.62232123910621
15.5,18.062679091037204,-20.061715229732034,83.64958762338654
15.55,18.102478407422716,-20.149530123977758,83.35580830164157
15.6,18.1934334224871,-20.58939061978064,83.68127084238856
15.65,18.348976221479102,-21.366691860567187,84.5483132281712
15.7,18.41843866240942,-22.399446665460083,85.60754304566787
15.75,18.15075379162305,-23.44556905399653,86.45273012436886
15.8,17.73099399717223,-24.30794191593853,87.02077028808219
15.85,17.447711707981256,-24.98733441458805,87.42312768894072
15.9,17.27425467452194,-25.568647482978875,87.7637653584424
15.95,17.194169316634888,-26.09440134098959,88.20079168438826
16.0,17.19962731819037,-26.688991382333644,88.76635713842933
16.05,17.36381846979091,-27.303724797247664,89.3602041351468
16.1,17.610437713382865,-27.931433274478053,89.88155233809827
16.15,17.855791732617156,-28.53085807366731,90.25141926583971
16.2,17.99867688944005,-28.953905673979225,90.43375898760007
