Time [s],Anterior(+)/posterior(-) tilt,Lateral tilt left(-)/right(+),Rotation left(+)/right(-)
0.0,5.588478931976589,-0.4098270490944098,-4.11691747215907
0.05,5.512430821937895,-0.4559368630465731,-4.151658973195206
0.1,5.415915847503639,-0.4971086129350811,-4.153686176318853
0.15,5.294712481498047,-0.578997308381881,-4.160239681555979
0.2,5.0636472880250105,-0.9562287385379618,-4.089105316591831
0.25,4.913137286597629,-1.0627910493339978,-3.949403619296453
0.3,4.811248533715074,-1.1247773839845967,-3.779610628018542
0.35,4.741588161678017,-1.1598692034775202,-3.620446036247312
0.4,4.6979932341143495,-1.1725015390903748,-3.5677915961225843
0.45,4.67816879798259,-1.1349896117972136,-3.5676550637669133
0.5,4.7596105514246965,-0.881519747466152,-3.704255145761947
0.55,5.023861204671159,-0.45897277661978025,-4.2914616773077165
0.6,5.41956936103508,-0.1791900550514359,-5.400613902493359
0.65,5.883190481283198,-0.12683013390601866,-6.426466838945641
0.7,6.574432271237221,-0.019670194358364358,-6.995884451234681
0.75,7.694810959547366,0.2638804620812989,-6.795110074847738
0.8,8.865721311299508,0.7467153066126819,-5.855246906571725
0.85,9.884439196493084,1.666436019328741,-4.57134471673087
0.9,10.928668438507872,2.5435534610238,-2.6695336241628067
0.95,11.869562083876879,3.3672176241870875,-0.3001277847484742
1.0,12.644450878780674,4.101264578623616,2.3228534412949564
1.05,13.551088742734628,4.575230047422785,4.8170897763794756
1.1,14.612183944540654,4.813140352724659,7.080390714280096
1.15,15.654891943580312,5.060990035661302,9.386067548033951
1.2,16.56243303857484,5.260060800203926,12.004454541957944
1.25,17.4782806052735,5.331667418336973,14.975114301577726
1.3,18.69605059873092,5.069232822122117,18.309167665199567
1.35,20.3472304555527,4.847406344495249,21.67390116122393
1.4,22.491877863905454,4.806272210695086,24.996096287387196
1.45,24.582631612869626,4.7825944867789145,28.162497746891663
1.5,26.57926685716376,4.96773947777791,31.542321137195714
1.55,28.56462923288448,5.246715563301338,35.127842232423234
1.6,30.30717914998405,5.622125890246947,39.118351682350344
1.65,31.679829427409526,5.832301673081804,43.165867031277266
1.7,32.73555504606318,5.74658012954919,46.842415641767964
1.75,33.36886544846901,5.45518461531164,50.51921724921527
1.8,33.7008880003066,4.678448029031538,54.23274196257807
1.85,33.830063485360796,3.580388587444962,58.117096156997626
1.9,33.695259527312786,2.6347067151153802,61.808036460423104
1.95,33.500275784464264,1.7160101149780818,65.41488861290455
2.0,33.27976755749781,0.3203248370710203,68.67561362992214
2.05,32.91711422614187,-1.1554918450218052,71.50316943163118
2.1,32.35204448105335,-2.22834572155974,73.98190721242523
2.15,31.650835255075133,-3.108969364727698,76.17957876290265
2.2,30.6956346776949,-4.19584398933296,78.27812462148046
2.25,29.50612004108285,-5.2867305415427905,80.14598647207696
2.3,28.277461867205563,-5.88792690230242,81.78845946946089
2.35,26.85921534546069,-5.975824044017054,83.45193438234064
2.4,24.687882978423143,-5.9503922573588435,85.44298380777906
2.45,22.25757329754822,-5.9858264930278136,88.18098547591772
2.5,20.234070254882727,-6.516277265836585,91.62783135502517
2.55,19.014492807305093,-7.79763619767492,95.54604613679429
2.6,17.023318704836292,-9.672624590965333,99.37342080572839
2.65,14.970934555509215,-12.484856098014335,103.13063471173457
2.7,13.923855623526585,-16.49422307417854,106.90525499136366
2.75,13.053574880596544,-20.730045663167648,110.45777101634341
2.8,12.27656576366492,-24.37456260791323,113.8873321933289
2.85,12.006359719795048,-27.65745866401543,117.32960885674525
2.9,12.096393917008896,-30.886015803959825,120.86966937009593
2.95,12.463882359535095,-33.79874416659342,124.51916195511254
3.0,13.336745525589789,-36.06660724671608,128.0041587892111
3.05,14.35007015229502,-37.35546666084594,131.1656330571342
3.1,16.030651596628942,-37.931768618254296,134.42646072138862
3.15,18.53132766591737,-36.43369698734979,138.05837188980618
3.2,22.160349229151166,-36.500303080989866,142.39017374821591
3.25,28.741675828467635,-40.61954636743117,147.67697658577032
3.3,38.443183330806875,-52.503418371017275,153.90890330143907
3.35,47.4519411261104,-72.20229251626377,160.17500511765286
3.4,57.16249103364452,-95.25783436802625,165.5852770611266
3.45,68.36945968550289,-116.50216158466121,170.0415704373254
3.5,89.26465088395533,-139.79446345762065,174.0746726616971
3.55,113.1048480429736,-157.58838061926505,176.8593362079998
3.6,123.66768081117426,-165.42898382300254,178.1119506166885
3.65,98.0932610669803,-163.3164920185133,178.00185841078007
3.7,32.4256295571213,-152.48978825933438,176.95571682030933
3.75,-11.466186826219516,-142.77898811559294,176.17919330576024
3.8,-34.202843572867415,-136.68479783750627,175.54170917313917
3.85,-48.87101745299229,-126.4569177819286,174.38246676554195
3.9,-39.964042221355,-106.93694928414297,171.25299536258322
3.95,-22.365044015729346,-89.02297587224253,166.8945409281821
4.0,-10.482118925984675,-75.23218387003561,162.6644310379427
4.05,-5.424856004877758,-65.18796743691705,158.69331315157834
4.1,-2.429049142065306,-59.314694043982236,155.36043293592545
4.15,-0.5957711147820698,-56.09103150331366,152.7801501919121
4.2,-1.7956986233053278,-53.40388949057066,151.2065964202613
4.25,-3.8145254356188323,-48.71701219493346,150.61734574583699
4.3,-2.4830590238036114,-43.111706035841024,150.0193029711752
4.35,-0.18295047640180714,-39.39228627003406,148.57486186023723
4.4,4.036151528992406,-34.8200402799582,146.15326281393456
4.45,10.88324844661838,-32.746774528986045,143.9998330414352
4.5,13.313732038822065,-35.033026287495545,143.05054879120362
4.55,13.307454223357395,-35.26180375362344,142.08296931086173
4.6,14.675104421179144,-32.988050965380076,140.181368128803
4.65,16.642087165357406,-30.28761611223872,137.87201225062884
4.7,16.7180359027411,-26.61606323718021,134.7528935730043
4.75,15.058642346099097,-22.578674729680948,131.02143915119564
4.8,14.003868048195685,-18.261601883333825,127.03702521245427
4.85,14.21473927150343,-14.145272672736514,123.40168126583177
4.9,14.604556843846485,-11.579729775104829,120.56194447885845
4.95,14.262086199523592,-12.109069872799122,118.53411968402129
5.0,13.911113522801013,-13.329447684220977,117.09184368239674
5.05,13.647748335666217,-15.186889681230893,115.88830682654635
5.1,12.693627378624484,-18.39663965685205,114.93222793710429
5.15,11.648764333798095,-20.870214689459658,114.60724367197952
5.2,11.189993788697583,-21.976476033483355,114.66365953690647
5.25,10.31439110153203,-23.507269900692602,115.26756775334184
5.3,9.170945037839575,-25.39038310930643,116.38913488783925
5.35,8.599412967846234,-27.26320106920909,117.7232360928692
5.4,8.533462360757083,-28.91897014765052,119.44908095207826
5.45,9.36659107991936,-30.179620631806568,121.54278387340551
5.5,11.848838261628691,-30.833113486505916,123.81925273893259
5.55,15.496059432204913,-29.642919367997,126.30297507954772
5.6,21.049762939050098,-26.16953841771595,129.2125741329715
5.65,29.583879432907498,-24.646711484860866,132.47298690869923
5.7,37.44062521481122,-26.567359539678094,136.71634224985485
5.75,43.216122705557034,-29.66890261033228,142.50414795921188
5.8,46.464009366770114,-39.05454154941227,149.96923935817713
5.85,50.741872257537594,-55.503684910725426,157.90957888953727
5.9,63.3676082376123,-85.8967408520442,166.45695212662434
5.95,104.62528461376756,-138.1374348082915,174.86623759468367
6.0,-120.87604135936274,157.2228887531854,-177.18108345656282
6.05,-43.148722734656864,113.9316749744653,-170.63909946137258
6.1,-23.29239475204554,93.9953028541772,-166.00429590346315
6.15,-15.770171716403524,88.87178622078108,-163.53085215281303
6.2,-3.2125673746888865,88.51958323318524,-161.77542610389625
6.25,9.72392948403275,91.79825205650157,-160.829316687332
6.3,15.695005012050817,100.1860324409965,-161.47256216635702
6.35,23.701566720879168,109.1823049435349,-163.04209444288736
6.4,30.013937939101407,119.6452939296554,-165.23110279640989
6.45,26.91925911213453,131.44949940649084,-168.0954279360003
6.5,19.017315731082295,141.61445412004107,-170.52527515484468
6.55,13.97157703668096,152.7082792054307,-173.3305082393509
6.6,-3.9583338330482674,166.8788576773163,-176.78513011951623
6.65,143.16490759377552,-178.04870079177775,179.526611781874
6.7,73.0052173394691,-164.42805933477354,176.36255116938435
6.75,64.88191126833607,-152.99756742524482,174.00373225222802
6.8,54.31426731209576,-140.55599095662654,171.78650464745638
6.85,53.69872475985685,-128.2273214870584,168.80691625588213
6.9,58.0481809266834,-113.94424520211508,166.54324930856305
6.95,58.15516081633429,-107.67001500186743,166.22159483053173
7.0,55.60727135509063,-100.16193482763342,165.22734673872893
7.05,51.813839264424594,-87.33201736106986,163.9016281649139
7.1,49.53054603738849,-77.27850225499603,163.2338678608162
7.15,46.834512446859335,-64.87614638335954,162.46069096967312
7.2,42.37616997399917,-46.74498100543667,161.0378456796404
7.25,35.6131474578962,-28.84194760743556,159.08157990099414
7.3,28.258881297656288,-14.499385481869698,156.31540043266276
7.35,21.322815885256208,-6.0350682460305505,153.35655511156693
7.4,14.286886788875009,-2.676978459104487,149.95409335100985
7.45,9.884568689395344,-3.9577569538693735,145.36683669193633
7.5,6.635046258155314,-6.0793957695026295,140.70248257895386
7.55,7.628922162081252,-7.0105155172685585,135.7462212281447
7.6,6.928251832077987,-6.944058303126772,131.5210800231072
7.65,5.7427826574043195,-9.435729585107431,128.9108950411121
7.7,2.8248842770001845,-11.648780618145356,126.44137165113852
7.75,-0.11530960824641172,-10.862366366297742,124.17455951480069
7.8,-3.5122385943225476,-8.712532374767727,122.8567265823986
7.85,-5.0643570032105965,-5.852208382002166,122.36824566654803
7.9,-4.2958203087848394,-2.422625879806794,122.52003059252915
7.95,-1.2189862758480015,-1.643021212127906,123.08770507013017
8.0,5.640817966533803,-4.548867020825778,124.98583680523343
8.05,9.13140971379651,-6.60580328884597,127.90928159215264
8.1,8.37495914340995,-10.195034757637446,131.2410107525495
8.15,7.143570883655162,-14.882677983339196,134.04944588167024
8.2,6.610682446495726,-17.111812070854803,135.76153223295302
8.25,9.345405043559122,-19.545770795428496,136.4157819053564
8.3,12.82784840488801,-20.499775728679865,136.19792544847627
8.35,14.029259761037183,-19.508129276224093,135.40661165590126
8.4,13.428674440992394,-17.664727036891165,135.02034797279154
8.45,12.162625627015965,-17.520273718453517,135.64163818387107
8.5,10.65840829528657,-23.03783347255772,136.90766960769326
8.55,7.481411372322852,-28.158272163692626,138.2067988110248
8.6,6.5180617801498935,-33.90838958489978,139.6299600988158
8.65,5.772897365596744,-41.595155292827314,141.19104668079515
8.7,4.2167554309806805,-49.75586197603028,142.67160227047012
8.75,3.3153912305255,-57.312762875114906,143.9164789289832
8.8,5.2719327322920595,-61.92418398133669,144.61751676693316
8.85,7.873989104475187,-65.52247067625049,145.38797045417135
8.9,9.718284828228262,-67.73536492341937,146.16739636833532
8.95,10.684588425261714,-69.00984380246449,147.5449496868018
9.0,12.674838568867546,-68.42953947497949,148.8854820985597
9.05,19.32933817731161,-66.8671594167418,150.24513772718495
9.1,31.65142994118254,-70.85431628012113,152.2556177611776
9.15,45.331075395072936,-76.97351827113579,152.73464798746323
9.2,59.37306000035706,-91.1779882186459,153.46896196611988
9.25,71.13345565005523,-105.12356907741355,154.76595798525122
9.3,80.23344265640826,-116.56845560062266,154.76242045542398
9.35,88.24243031026455,-125.26344363421033,154.4728868808291
9.4,92.02257942433428,-129.9879276885312,153.25823650277152
9.45,92.58637177442162,-133.27561160486684,151.14473829958607
9.5,93.77865005843384,-137.00688149155079,148.12961020782652
9.55,98.20201765800513,-141.75756916513615,145.97888481205126
9.6,106.02579466947286,-147.4218892686053,147.94151449184048
9.65,115.79691785766886,-153.3647024085878,151.61427264476023
9.7,122.90337008168854,-157.34016576219898,152.09836386419784
9.75,127.51767360579495,-159.1339809068361,150.71034123578863
9.8,131.45639764205401,-160.14731026064166,149.7635450581257
9.85,132.95145373525943,-160.31883647948592,149.40985502341223
9.9,130.1712876960014,-159.56353541509097,145.55916356491775
9.95,135.75313906834543,-162.1826357861167,148.5803585821248
10.0,135.67733568730242,-162.5538999030593,150.25507424968646
10.05,132.26551644758683,-162.3872077432162,148.80139509804658
10.1,129.83960307085596,-162.4200941835018,151.57053403503627
10.15,118.8352669887115,-159.8581531309783,150.85242114620857
10.2,112.54790339913251,-158.46090121440824,151.5405049725215
10.25,111.77800281890134,-158.7337881145156,155.35119359365942
10.3,104.27392723776697,-157.22714442001603,156.30147962624392
10.35,92.25793021270937,-153.8076767986702,155.88434215846348
10.4,86.99316461988333,-151.97909306445482,157.19944704981688
10.45,85.26796089615753,-151.1811362277772,159.1591979035895
10.5,81.35848829392643,-149.4666649594026,160.4279218451932
10.55,78.85329319050433,-147.47264365069682,161.7186367060594
10.6,74.3431073872982,-144.95004590468497,162.76654787157582
10.65,62.547894542938884,-140.82923996196843,163.25253368779147
10.7,40.159245265559896,-132.52175618671825,162.47493348802644
10.75,18.77047290030944,-119.82309486226995,160.91033637149224
10.8,4.3046179035996515,-102.41182656696589,158.6948045105297
10.85,-2.998105322638392,-81.68073569286132,155.55113588557668
10.9,-6.4850941489853,-61.31932235539884,151.3149860691532
10.95,-5.471877820039098,-46.56587268654405,147.33288992539056
11.0,-3.8969265789301417,-36.960906735065215,143.75606002792216
11.05,-2.425060112650295,-31.78940191016196,140.43327007823046
11.1,-2.2302892295471897,-26.944238848751063,137.38982264114608
11.15,-4.5587421671191874,-20.772081931261212,134.2926425724245
11.2,-7.627906208086203,-14.680865289605872,130.7631276221442
11.25,-9.248686162303558,-9.198237887519278,127.2860612962728
11.3,-9.482481927275362,-5.788739413051725,123.41078324527626
11.35,-4.684772376951929,-4.315511076609091,118.58408118398866
11.4,1.9299488935657094,-1.7367202752940947,113.57844358355744
11.45,5.311925681694411,0.5897252957707088,109.4652630732353
11.5,9.598189289720906,1.4205518461536115,106.46848095107423
11.55,12.094359209317032,2.5381580789861182,103.33135906846984
11.6,12.6916874165995,4.392194566605611,100.32608421160458
11.65,15.471768577589533,5.847790201097615,97.57337134336437
11.7,17.443752433638448,8.745803623196748,95.1182841181294
11.75,19.120736814503918,11.5919182342896,92.95870659068574
11.8,20.679700199251002,14.107050743391502,91.34526342680806
11.85,22.619863534738503,16.09857851203517,89.94855232419202
11.9,24.800025450414758,17.1659087338389,88.51587614431803
11.95,26.151759053144474,17.343823639421366,87.29437104547515
12.0,26.763889517325882,17.20107381517862,85.8122811428706
12.05,26.73283671801693,16.635039016590298,84.1800974439367
12.1,26.5643934565879,14.928812399645615,82.55258539172375
12.15,25.952678991015677,13.584001198697464,80.92352927723269
12.2,24.418058885878423,12.427572066834015,78.9972246248964
12.25,22.77480500401173,10.416250948367578,76.91167889431684
12.3,21.650086590291348,7.665150695449862,74.58959963856888
12.35,21.304211708132932,5.070611709873412,72.14057147201295
12.4,21.841323229459753,2.817864069194239,69.77482820042417
12.45,22.469989568802568,-0.49609361204149394,66.84354361271774
12.5,20.994092262597892,-5.591848642256778,64.82410070440129
12.55,19.54689971192734,-11.89068603259696,62.29092905636083
12.6,17.79338711014742,-16.725431860470106,59.704038310481515
12.65,17.480990983903016,-19.792263850951677,56.732618948158375
12.7,18.36275148460172,-21.09643030826424,54.257914900075
12.75,19.594867231187223,-21.09233121040019,51.30864855677564
12.8,20.613059315129792,-21.42376442796403,44.842454038964554
12.85,20.974960932528937,-21.973655290383668,38.17769961913749
12.9,22.202388274355368,-20.619528667746685,34.395543916573246
12.95,23.13217708113261,-20.72271015371993,32.01027563516991
13.0,22.76390365075063,-20.111335032747387,29.494896382172715
13.05,22.38852003668568,-17.56692160858027,25.579102792549126
13.1,21.172573900145686,-14.615767239257154,21.578313005600194
13.15,19.341015988004834,-11.975414389485675,17.950597386010905
13.2,17.702327407568216,-8.854868795858916,14.554468771471873
13.25,15.800866339114625,-5.989103796756702,11.364443836497042
13.3,13.701327298800775,-3.2420408018242517,7.712931060483943
13.35,12.00256292549358,-0.2016787507801232,3.9873478903717827
13.4,11.766852837672348,3.169962292766871,0.5809780447570291
13.45,12.311821766798612,6.724612734924384,-2.011557848961692
13.5,12.834420957844554,9.55917541599811,-3.6736704950823387
13.55,13.059451905965227,11.270078982694757,-4.489646696881207
13.6,13.343929174511091,12.256064377087407,-5.481876379938176
13.65,13.367873742909829,12.97906108301956,-6.68811228148818
13.7,13.713727267697864,13.525203804075216,-7.556725011588748
13.75,14.134579174364921,14.25100224047528,-8.274913972703597
13.8,13.78280637679197,14.626516320254487,-8.221209813249402
13.85,12.734302429089688,14.68353858746407,-8.218331680455853
13.9,11.262524810726388,14.558370946668925,-8.193635207613093
13.95,9.909123308920103,13.718902790658705,-8.095316751794357
14.0,8.224292476173607,11.427564261230595,-8.154534218200396
14.05,6.490993881493113,8.155286971932107,-8.505007187530785
14.1,5.065586581723,4.44361039527794,-9.02903493309151
14.15,3.7085075761930453,0.8234457409472896,-8.632488952492766
14.2,4.708443974402515,-0.08374085195239742,-8.846521499975958
14.25,5.0596681794527285,-1.281248777182821,-8.88446387294236
14.3,4.795267328086111,-3.3816696312278576,-8.994669162479658
14.35,5.763183360847766,-4.034723329597173,-9.32239521000537
14.4,7.147932957631104,-3.99904247002987,-10.075381102758314
14.45,8.397589772112802,-3.9466033121226394,-11.094144176624404
14.5,9.8478259842809,-3.8280144944121703,-11.41936537561486
14.55,11.217012922978704,-3.9690470599596916,-10.68290508406173
14.6,12.48666347416374,-3.9919047343677714,-9.08183909788071
14.65,13.590804313832828,-3.82650007819631,-6.796068416521973
14.7,13.952440512282186,-3.4725956968465748,-3.522285804540065
14.75,13.840776794607175,-2.3594325070248083,0.32331935587178084
14.8,14.326704479864459,-0.12953453130433162,4.384632665862257
14.85,15.548125640014694,2.207161796406552,8.605560192658016
14.9,17.016494836397854,3.78316803581013,12.36668109262349
14.95,18.517299443777784,4.69000715768904,16.089719204856653
15.0,19.038433655925513,5.4225880945230704,19.45526936768463
15.05,18.79560361605568,4.947791450390881,23.424445588190853
15.1,17.400037462831566,3.649244374685476,25.42097344667138
15.15,15.396011004111239,1.87636814191346,24.36099767948505
15.2,13.356188625096722,-0.029269244343955714,21.25497867788751
15.25,11.84309869073777,-1.7085359756976188,16.959191095770986
15.3,13.025360135400922,-3.9826346013412515,12.706218515496655
15.35,12.903708879100607,-6.2277731147770234,7.081414559339008
15.4,12.836369460194117,-7.900433921795789,5.097807542066703
15.45,11.745973015845202,-8.71596432202436,2.713755969378526
15.5,10.36855080212088,-7.4032195185673935,0.5856851862615615
15.55,8.698043607689248,-5.199336564907163,-0.9238996000460055
15.6,7.9866761576982634,-3.163884490308093,-1.5554169006023189
15.65,7.961100970277504,-2.495177738305293,-0.7609533192016634
15.7,7.906748592153613,-3.560217659395923,0.44182153733055496
15.75,8.083494499051675,-3.9824915055398624,2.1294131046361953
15.8,8.110677355377689,-1.6443724888528417,2.838588930808559
15.85,7.8735748867150654,0.13726435449336452,2.5991192776556145
15.9,7.457259881191553,-0.32104362639846845,3.6135721619502164
