Time [s],Flexion(-)/extension(+),Supination(+)/pronation(-)
0.0,-110.9205700249643,-136.35983393839985
0.05,-116.61607718124509,-140.8608266151959
0.1,-122.51407841708054,-143.94682623618633
0.15,-131.09373643899394,-148.8521383387181
0.2,-138.0621704161521,-152.70689911991968
0.25,-142.2163417915698,-154.1934492449117
0.3,-146.29573731616458,-155.454477313465
0.35,-151.6154479661354,-158.22902826161769
0.4,-159.1851396855027,-163.45059160372543
0.45,-166.19134206300933,-168.5784480730921
0.5,-168.5811552913009,-170.2879133360456
0.55,-163.9398506055256,-166.486871742291
0.6,-150.9607468237855,-155.83936654217786
0.65,-135.339645653012,-143.6577295084339
0.7,-119.11979289549862,-132.4816239253852
0.75,-102.9480250595441,-122.32649051197866
0.8,-88.629301676133,-112.65478098974516
0.85,-76.72092071399462,-102.7177531687919
0.9,-67.76540736940272,-94.46368387015893
0.95,-62.23249052309388,-89.77568594914453
1.0,-60.18830085768686,-88.8626387366992
1.05,-57.9872473418866,-90.29544064288696
1.1,-55.45203353302277,-90.93185687123602
1.15,-53.03718999796441,-94.86475175066509
1.2,-53.361466101514466,-99.25387010539616
1.25,-53.22345858767006,-104.78697593472555
1.3,-51.376996963151235,-109.4845293108468
1.35,-52.63617270382134,-114.592425707213
1.4,-58.183786518857104,-119.95952034449007
1.45,-66.54887061940428,-123.50609538920929
1.5,-78.45909658178496,-125.25576101319358
1.55,-92.7239696356489,-125.36416603427783
1.6,-106.11866012556753,-124.23338328926876
1.65,-115.21624670803534,-121.60949573649062
1.7,-117.9422535500384,-116.18814350992623
1.75,-116.37988767289065,-110.0110928256358
1.8,-112.55187870191709,-105.32190446172291
1.85,-106.67960159089633,-99.55160503793596
1.9,-97.69904120537677,-90.25419671058381
1.95,-87.81583578305822,-81.49659441835024
2.0,-77.42681562959808,-75.41615436246563
2.05,-65.63128679914176,-72.46658322306344
2.1,-52.477652974370976,-72.46858111901432
2.15,-39.85037907106722,-73.97376512871256
2.2,-31.182195905828326,-77.14858062944172
2.25,-27.23113403938308,-80.22772029534518
2.3,-25.330516913927752,-81.06036538480369
2.35,-23.591514187623,-79.76153147199155
2.4,-22.535213872732534,-77.7221997806621
2.45,-23.36079021788469,-80.9845525204744
2.5,-24.72262763173315,-83.88768981724603
2.55,-26.15767917841259,-85.49615934956715
2.6,-29.343306674035343,-88.4798568194316
2.65,-33.74220869675809,-92.17236285670964
2.7,-38.58950928643956,-95.67675707250412
2.75,-43.64390110854283,-99.83155420251728
2.8,-49.353683636425785,-105.11247128428238
2.85,-54.54091013821356,-109.62687940181154
2.9,-57.99063057265922,-111.29722651645845
2.95,-58.61130427360075,-110.08077419485389
3.0,-53.73393395306808,-105.72567525494703
3.05,-46.23937610426592,-102.74777270224997
3.1,-38.753248222931745,-104.10891517691817
3.15,-28.805681328923935,-103.96328395177687
3.2,-18.23977278105068,-100.34507987460908
3.25,-10.103231896237464,-95.5828576621492
3.3,-4.998642630002517,-91.64296047588776
3.35,-1.8435063669344225,-89.75808460830515
3.4,-0.8508561045873334,-89.68101248482517
3.45,-2.531179650602974,-91.2093296358248
3.5,-5.9308299358399355,-92.17045980464957
3.55,-7.507982354405257,-93.84928737521787
3.6,-6.451494799114666,-98.83936659275794
3.65,-4.2371337891769345,-105.31011854649543
3.7,-4.454068408296516,-106.44852841768247
3.75,-5.249119578315956,-108.67359524313675
3.8,-4.9390765782688,-110.64565831723276
3.85,-1.4225358113926916,-110.84133589427577
3.9,0.9520671674347901,-111.8686040630257
3.95,-0.8420978814263637,-114.32868878440954
4.0,-4.616958273726211,-118.09985744704846
4.05,-8.103234767694923,-122.72859005363577
4.1,-10.634861306023856,-126.02005520621734
4.15,-12.190478887113137,-127.14719619239344
4.2,-13.191146899252736,-127.56734261090472
4.25,-15.394608319355662,-128.75952050139796
4.3,-20.38162450712533,-130.33576900725782
4.35,-24.544679976708828,-131.41213747268117
4.4,-23.822765441055644,-130.29905528477303
4.45,-13.984976178311525,-127.79538568677116
4.5,-1.5756394952030017,-122.8441190251263
4.55,9.149369867529721,-115.08392028443754
4.6,17.4973256801809,-106.60640198513376
4.65,24.174986862970794,-99.05428580222748
4.7,28.64515012512871,-91.88347811093054
4.75,30.78726127003568,-84.82282076483246
4.8,31.929595522700396,-78.22482888072561
4.85,31.63913233164514,-72.88518522984562
4.9,30.38493299956002,-67.45979400825598
4.95,30.235236320054923,-61.561264661808224
5.0,35.76375461607471,-58.367091532488736
5.05,42.768800032566006,-59.449936691134766
5.1,50.03082932527879,-60.75237437494279
5.15,55.86715669651547,-60.55830400389629
5.2,60.221153946047544,-61.36637368943303
5.25,62.65344537399766,-61.79034518806135
5.3,63.579928985206195,-61.94951051039805
5.35,63.613417574447105,-63.14779455082014
5.4,63.09822284661652,-65.19414437025124
5.45,61.961432618224144,-66.67532357876075
5.5,59.8861103098897,-66.91954494180308
5.55,57.01322894754243,-66.22170763064699
5.6,53.71586466523957,-65.01322486250437
5.65,49.694778442037,-63.652124106283146
5.7,44.822625529640035,-62.26343414058906
5.75,39.27286241492049,-61.078069023802065
5.8,32.92283306788141,-60.16893005885379
5.85,26.064282846082033,-59.93551372884961
5.9,19.05022781832958,-60.577709056890264
5.95,12.921577856370668,-61.917590364153206
6.0,8.543532615901457,-64.44500498132072
6.05,5.679646128257354,-68.66620269728178
6.1,3.2038620162979643,-73.41887011852633
6.15,-1.1392964607479996,-76.92079621515337
6.2,-10.495640709471907,-79.10446518866272
6.25,-23.209222067619056,-81.36267717516021
6.3,-36.66209617905275,-86.25830036221777
6.35,-46.82001787424432,-89.42615463471272
6.4,-52.1359886184378,-90.06486834532286
6.45,-56.05746579384275,-89.72573808466065
6.5,-59.96688527872717,-84.9116603447807
6.55,-63.5854106751305,-77.37918446339309
6.6,-67.91368879142685,-70.8665923854261
6.65,-72.39062403215485,-63.93266460504266
6.7,-76.39571993538839,-56.285071046456444
6.75,-79.47894058443019,-49.45364552037915
6.8,-81.75776915544716,-43.55788807141722
6.85,-82.96122915115559,-38.735782957376976
6.9,-83.3293066607873,-37.18482397068497
6.95,-83.40294684228711,-39.92656927342577
7.0,-83.69113022220297,-43.997656023896404
7.05,-83.95240860403291,-45.31730810565584
7.1,-83.54224222591719,-46.393950858364754
7.15,-82.09120825755727,-50.636840878561046
7.2,-78.60658316844554,-58.98926555525569
7.25,-72.06562523003123,-69.08312588097239
7.3,-64.4630197230509,-79.27601695598004
7.35,-58.53710595659402,-87.04738607716718
7.4,-54.19875806713775,-89.71197707653887
7.45,-50.780548219416694,-86.86949058336107
7.5,-47.60586157602876,-80.55500286172696
7.55,-43.55379789951215,-72.72203561941197
7.6,-39.931995554606296,-64.74914768871935
7.65,-39.62314623259657,-56.342514449188194
7.7,-43.97638323572196,-46.04208885595147
7.75,-50.53908915012362,-35.37166877405691
7.8,-56.92981881390267,-28.59643664931856
7.85,-62.9182186902804,-28.908999584372225
7.9,-68.83544732441268,-29.390534493679233
7.95,-75.13098933861919,-24.432722139254373
8.0,-79.9859852099201,-24.276308887518994
8.05,-81.95510590991262,-24.91802447709812
8.1,-83.66781339778538,-23.89017863655996
8.15,-84.91772100925014,-22.737060750144963
8.2,-85.73093682601493,-22.947070515799897
8.25,-85.98337324880347,-22.887263765707687
8.3,-85.63372746068761,-22.533206616760012
8.35,-85.1495333182794,-22.62488925716824
8.4,-84.45738864554777,-23.430600589372638
8.45,-82.76623124610616,-28.534117105658236
8.5,-79.48302918278706,-41.33751456652538
8.55,-76.05118267345553,-58.06250191744205
8.6,-73.34210178002517,-73.91396527454745
8.65,-72.03677401505975,-87.11292700399007
8.7,-72.7040612214388,-96.92409159403567
8.75,-74.14210705181385,-102.7980283167062
8.8,-75.42183471719285,-105.60607969846467
8.85,-76.36456971649731,-106.93919914288593
8.9,-76.98797273472275,-108.69745718975656
8.95,-77.16782139593187,-110.19557721501758
9.0,-77.04957696626198,-110.6402823133494
9.05,-75.83342536714424,-109.61862332540423
9.1,-72.20559422169838,-106.4633296390804
9.15,-66.6290735730633,-103.40176905361307
9.2,-59.96825302858906,-97.95438014408079
9.25,-53.966438422512084,-90.51056500355197
9.3,-48.65058047031096,-82.86523244464776
9.35,-43.78233328909964,-76.7435649476707
9.4,-39.8120748905212,-72.60652464438958
9.45,-36.97858486820445,-68.48717930769037
9.5,-35.414008743483876,-65.47849231427928
9.55,-36.09927807022287,-66.7626776286981
9.6,-37.36873228540794,-68.94838261662426
9.65,-37.230250870603946,-70.61916404828352
9.7,-39.265473315978156,-76.41318210861752
9.75,-41.22389014483626,-77.73721313431152
9.8,-43.04948934831506,-76.13914767204096
9.85,-46.46366283971476,-76.87670616095001
9.9,-52.12910482610443,-78.55631606060257
9.95,-58.52987519191235,-79.63789542955404
10.0,-64.06946635636336,-80.83676308718687
10.05,-68.56656858068865,-82.76065407767852
10.1,-71.92378132509248,-84.53977807994534
10.15,-74.15549484846633,-85.65374514878053
10.2,-75.71502887401995,-86.48293520708536
10.25,-76.32131755715282,-86.82523049905606
10.3,-75.65425621449747,-86.47161997147974
10.35,-74.48979711370956,-85.80914243869684
10.4,-74.298507826473,-85.27330691021271
10.45,-75.14418227750394,-86.02384530879769
10.5,-75.44577810060176,-87.45350486121164
10.55,-73.94204771887954,-87.42742790848486
10.6,-70.17697539626599,-86.11927349982209
10.65,-63.35455595240883,-82.51709155280763
10.7,-55.284945134419765,-75.76767608921547
10.75,-47.5742915098257,-68.54369379024365
10.8,-41.18072561522692,-63.18119559594504
10.85,-36.45951832308289,-59.45091229513477
10.9,-32.86121094230924,-56.76317962323094
10.95,-29.965113658958746,-54.57841203292222
11.0,-27.439248200445796,-52.78558921749355
11.05,-25.79468642117235,-52.51409599364413
11.1,-26.026354515087327,-53.997261973245024
11.15,-27.975663977515183,-57.353675777730565
11.2,-29.36977114808781,-59.793356490130826
11.25,-30.82882484549412,-60.27246882895998
11.3,-32.96201654166514,-58.68362416342073
11.35,-35.42427853550836,-56.90570814713934
11.4,-40.78273449805135,-59.634867891254885
11.45,-45.778986948290246,-56.74043777275388
11.5,-50.04718827013958,-57.81859225046051
11.55,-53.12935669012499,-62.198790303011556
11.6,-55.779485342980486,-65.22324580826711
11.65,-59.0787861651318,-67.7570779165634
11.7,-63.00619251189267,-71.51205114483905
11.75,-66.99286372471919,-76.91139338147362
11.8,-70.58521415650317,-81.4406384138436
11.85,-74.81401673355359,-84.28685464186326
11.9,-79.44785136790311,-85.81581010411723
11.95,-83.15845492748423,-86.26756751536891
12.0,-82.96301290961854,-82.39140374375434
12.05,-78.11806181821132,-78.6318440881229
12.1,-71.72081675682655,-81.77042691659955
12.15,-62.39979226836045,-81.7319006102726
12.2,-51.83967365265374,-75.0279576919003
12.25,-42.553765410336645,-66.49000862033037
12.3,-36.41990421846584,-57.079885232619226
12.35,-33.16450882096072,-48.83021494191889
12.4,-30.93867300577554,-43.56686781052695
12.45,-29.35968699880069,-40.73462426917117
12.5,-28.632732712169197,-38.396271091466154
12.55,-28.00530500987549,-34.73456520314824
12.6,-28.001625237372632,-32.62233118455368
12.65,-27.566602021984387,-36.300420524884444
12.7,-26.102864150174497,-42.36954413346163
12.75,-25.194755828326514,-49.032424526286256
12.8,-25.337642936286713,-55.748571762908966
12.85,-25.898346173495312,-62.47006580991718
12.9,-26.659527474950522,-69.09827536043265
12.95,-28.2003528665307,-74.01502599206937
13.0,-31.105471141538217,-77.78045801497301
13.05,-34.81985785543284,-81.46718962830218
13.1,-38.66697387339726,-84.97700857283938
13.15,-42.836221481250824,-87.89126385269392
13.2,-47.21997726871502,-90.49287471454868
13.25,-51.23694776291969,-93.88211561758554
13.3,-54.49311461229033,-97.7430769470387
13.35,-57.2597440861035,-101.27811406504767
13.4,-60.146105737975695,-104.47966945411868
13.45,-63.42466660108094,-106.96142454358966
13.5,-66.96696814528543,-108.5778258731186
13.55,-70.9531929317977,-109.68897126933331
13.6,-75.02021226779537,-110.43922098733965
13.65,-77.88613618834319,-110.85652340121588
13.7,-77.8214083085604,-110.5254421438013
13.75,-72.76676134886364,-107.4577521338865
13.8,-64.72389844062963,-99.51425859709553
13.85,-56.44585412831311,-87.23318336291857
13.9,-48.78216346054929,-75.42598366131791
13.95,-43.44134611769151,-67.9878082550919
14.0,-41.33301927188002,-64.31572517289082
14.05,-41.31885203355113,-61.27822186966243
14.1,-43.97675920748764,-60.08585377592259
14.15,-46.146791027024086,-59.096295254839774
14.2,-48.889573977242954,-58.74630158674494
14.25,-52.06507266701924,-56.65620903558465
14.3,-54.89452287030296,-52.0020700623614
14.35,-58.10219601441556,-49.35772432631876
14.4,-61.52509362068562,-48.08358813089553
14.45,-64.55014049805851,-45.67017435267245
14.5,-67.48953211412048,-43.34319517096756
14.55,-69.22225031462798,-41.89584518175419
14.6,-69.72091293661907,-40.9539054503657
14.65,-69.19720531180361,-39.04096474072355
14.7,-67.13171408352977,-38.47780674269889
14.75,-62.14400118838253,-39.96245606587775
14.8,-55.94519136193611,-39.717316461287986
14.85,-49.5642324247626,-36.51250679924988
14.9,-42.63359321416736,-33.184735274271404
14.95,-37.45352621067932,-31.970530770173937
15.0,-34.19935488817956,-31.15898758083152
15.05,-31.292675957372072,-28.459660545982135
15.1,-28.30019098833742,-25.605621585825045
15.15,-25.798781314803115,-25.333663747018193
15.2,-24.286744747452957,-28.54440343932156
15.25,-24.19652248071287,-32.74187146641198
15.3,-24.33399575117958,-35.39684995868271
15.35,-23.976635125834065,-35.865489920535914
15.4,-24.518475927271833,-36.669292319418034
15.45,-26.013401479251883,-38.429752770935
15.5,-28.105340670656208,-40.490668926041
15.55,-31.322491018550597,-43.71998379478414
15.6,-36.45259699761458,-49.727789476396225
15.65,-42.772906527405176,-50.8935610865491
15.7,-45.22125100108295,-47.13970438614797
15.75,-46.009367239243865,-50.6223291288794
15.8,-46.10398825260238,-53.293262807004474
15.85,-44.924256830462454,-54.309434347121794
15.9,-44.471977444886605,-55.775694596661154
15.95,-44.130990826024515,-56.905880310010495
16.0,-44.178305741515146,-59.20283915296492
16.05,-44.15892261765509,-61.51820318765845
16.1,-43.77348808886042,-62.40101022924322
16.15,-43.54844492738652,-61.79159883405896
16.2,-43.70679028977162,-60.19842025760116
16.25,-43.96925396504822,-58.014833896011396
16.3,-44.57589031891605,-55.732467191115354
16.35,-45.92612629541926,-53.4415868924312
16.4,-47.82170240014211,-50.968760532537445
16.45,-49.80225266683542,-48.86764860931236
16.5,-51.045961556673106,-47.81696990064361
16.55,-50.88945739036535,-47.10149759831938
16.6,-50.32639674015817,-45.684648470624744
16.65,-49.27589382354515,-46.30842583974511
16.7,-47.218083907554984,-48.47616545530757
16.75,-44.898798650363936,-49.18880307164808
16.8,-41.90547090936556,-47.543522492839706
16.85,-38.49124307534446,-44.36167671501068
16.9,-34.56230060835549,-40.835330819911704
16.95,-30.852181585746536,-36.82049039879054
17.0,-27.770485405856544,-32.559047019350565
17.05,-24.3337130800784,-29.499643407958175
17.1,-20.386727355850486,-27.95187490996612
17.15,-16.075774859435047,-27.35361690454579
17.2,-11.085893021342278,-27.28690873583262
17.25,-6.155122511768857,-27.669784504640333
17.3,-1.603721800268272,-27.52251262083602
17.35,2.710200994698787,-26.48539212490885
17.4,6.639789933211689,-25.47798180392333
17.45,10.05703719165957,-25.643419608764276
17.5,12.477216502687412,-26.442430225772583
17.55,13.306240900051222,-27.112593873114825
17.6,12.562285079817444,-27.935104357582894
17.65,10.726026221977289,-29.187412153246314
17.7,8.253106928131073,-31.25434188074675
17.75,6.0533286255156895,-33.823865206914434
17.8,4.909251076715756,-35.19812378926639
17.85,4.728629002922518,-34.99413845630038
17.9,5.218577177706779,-34.067368969410545
17.95,5.878007925229543,-33.2118973837994
18.0,6.096804538111675,-33.0881253306388
18.05,6.030566119607683,-33.967159310552056
18.1,6.228467743468986,-35.37895941259123
18.15,6.813563542786297,-37.763124481714506
18.2,7.690176540338497,-41.01929297634201
18.25,8.940758946354492,-43.90635834295944
18.3,9.723448965200005,-47.291123890270846
18.35,9.269173879839025,-50.82295441916993
18.4,7.535768471777787,-52.477518523035116
18.45,4.4115595474202225,-51.93699792055836
18.5,1.2969135329087467,-49.852484202531215
18.55,0.036017493281133,-47.114281700881364
18.6,1.2698877159536444,-43.829613788901426
18.65,3.5196778247623417,-41.123890646053695
18.7,5.666049430782024,-39.65204084783074
18.75,6.881517289322399,-39.26593432938858
18.8,6.922792418198701,-39.62438414235895
18.85,6.983554560746536,-39.91279251822246
18.9,6.9375253948141555,-39.72814920533608
18.95,6.019235698139251,-39.84532271791729
19.0,4.058993416615318,-40.35053057949465
19.05,1.1993904178759145,-40.31268913321997
19.1,-2.003857805878674,-39.43003221902879
19.15,-4.167445190633694,-38.43592240151824
19.2,-4.8078108247311295,-40.431142122455185
19.25,-4.421676192526015,-46.25958463469031
19.3,-4.5669646144182705,-50.857408623874605
19.35,-5.0700815173998395,-51.8185883142544
19.4,-5.299059864901795,-51.18386152118447
19.45,-5.374979907829918,-50.127515802985535
19.5,-4.901121825794186,-47.0667370032046
19.55,-3.3329952861767773,-42.724529380111086
19.6,-0.815212378318612,-40.40295645151415
19.65,2.1398641286018445,-40.70365212385279
19.7,4.460446583468178,-41.43001272694892
19.75,5.263216249158333,-41.967399474070376
19.8,4.7096277915502744,-43.24630212335653
19.85,3.542311952634526,-45.33841807364721
19.9,2.5863093035422566,-47.24207973962073
19.95,2.121872603756025,-48.66274237154106
20.0,2.2992835130187728,-49.71461945326058
20.05,3.6894962313573427,-50.00038367863022
20.1,5.75903584961189,-51.273389485560116
20.15,7.1916410655853005,-56.034937760375016
20.2,7.022940608544364,-60.02467093272697
20.25,5.557017125629832,-60.91985487306895
20.3,4.7377120706477625,-60.97226079225582
20.35,4.913560066279581,-59.56500521549368
20.4,5.66489084792315,-55.4927043277897
20.45,6.796924972516349,-50.98328365841551
20.5,8.851255644888989,-48.40151192635634
20.55,11.39537118991791,-47.38115630936447
20.6,12.38816927460316,-46.90393987812479
20.65,11.060317126648078,-46.832971768843784
20.7,8.504974987401184,-46.487299607239656
20.75,5.715357972435679,-45.68611052755198
20.8,3.9034350427583946,-45.37151508932041
20.85,3.311675926036011,-46.95942496701459
20.9,3.2472096134374757,-49.226182520505
20.95,3.047421117340829,-50.65378699645526
21.0,2.7701937421567906,-51.312342869493996
21.05,2.894394446979597,-51.74164129279937
21.1,3.6690983878539694,-52.14249261596343
21.15,5.282114560112834,-51.96955401562833
21.2,7.233750013132457,-50.92886337142219
21.25,8.684571594757875,-49.58523643964747
21.3,9.833390257861208,-49.53856657937712
21.35,11.307549056022602,-50.64076568128941
21.4,13.302200223980618,-51.502871149161784
21.45,15.573097271334477,-51.79578357985534
21.5,17.734344621484528,-51.514132515712646
21.55,19.407275549573725,-50.91148463340864
21.6,20.475137480830686,-50.329600651499064
21.65,21.20929993907462,-49.77094570675112
21.7,22.00971819794007,-49.258183729435515
21.75,23.057291000706215,-48.89971718250912
21.8,24.216698395086098,-48.687326652823735
21.85,25.44616088622647,-48.788678415017195
21.9,27.045131018276887,-49.2904646516301
21.95,29.097325977126744,-50.00446278833743
22.0,31.73864076423681,-50.86053931595362
22.05,35.155984814037694,-51.88715316132453
22.1,39.09996215518107,-52.97456760987027
22.15,42.40602268682498,-53.98516415045924
22.2,43.87894657031139,-54.975953036750504
22.25,43.447363295010476,-55.76970821578447
22.3,41.32164917339889,-56.286665399095455
22.35,37.39707652015791,-56.33295740988398
22.4,32.07064771097876,-55.77799266729818
22.45,26.669097357165192,-54.92211720069076
22.5,22.07387497470933,-54.06055574683862
22.55,18.25483241915026,-53.08017396087808
22.6,15.14237995781796,-51.648196829568455
22.65,12.29022509311685,-49.89531321300808
22.7,9.474806141914643,-47.91013737527092
22.75,6.884210482295209,-45.74641777176596
22.8,4.575178731203458,-43.8590788872559
22.85,2.6888570987038305,-42.4922175790593
22.9,1.1880090229403164,-41.34908156692185
22.95,-0.2217808829559459,-39.82116414339656
23.0,-1.596343671309731,-38.06169924459235
