Time [s],Anterior(+)/posterior(-) tilt,Lateral tilt left(-)/right(+),Rotation left(+)/right(-)
0.0,34.24967251747553,-23.03829570550459,-48.72173030939566
0.05,30.793799047327273,-22.02553677229174,-46.31185257142096
0.1,28.36941131799563,-21.31869270813479,-45.212444137464644
0.15,28.876189296340822,-21.22034119487059,-47.6832711731321
0.2,29.087015583208796,-21.113222709046266,-50.14311662179871
0.25,29.38045971933146,-21.85412119466776,-53.09228417184414
0.3,29.830467793388276,-23.355413253902483,-56.46525102694459
0.35,30.38849296872885,-24.98671393075595,-59.119553332903415
0.4,31.058478973528363,-26.46894729767226,-61.32754777893836
0.45,32.40658367368691,-26.920118626328556,-63.57920690436241
0.5,34.77773654079822,-27.20620284750525,-66.46919306087327
0.55,36.32298500759106,-27.310879420966135,-69.28959451105422
0.6,36.52542569000835,-28.750055119861855,-72.36645781050588
0.65,37.14010639112673,-31.479179806342255,-76.56111561027865
0.7,37.76774980239122,-33.75035913032437,-80.73286795313602
0.75,38.379718336375745,-35.646781515935274,-85.41241249079616
0.8,39.39336272794154,-37.77013383294281,-90.95566251476895
0.85,40.719885591234025,-40.10560191294614,-97.12305094631364
0.9,42.103526642101464,-42.14208454287253,-103.01260300808073
0.95,43.53258606159714,-43.96832717737422,-108.30121930820077
1.0,45.074488032447476,-45.738011317033695,-112.90615319692638
1.05,47.611957658835166,-48.11365104041888,-117.18996003628841
1.1,51.10503795172108,-51.917445550924135,-121.70277196131728
1.15,54.43417237252492,-54.80919351408267,-126.19726887109894
1.2,57.34789582670105,-57.65047122039642,-130.62655327204138
1.25,58.736726239244256,-57.7050962974645,-134.14798884219164
1.3,57.20464944689121,-56.79018149581222,-134.51957060291002
1.35,56.55360678422555,-57.86078096910036,-135.39051067785823
1.4,56.12666470343577,-57.971370708188516,-135.64984200093275
1.45,56.98956905371752,-59.58912705368611,-136.44366755343262
1.5,57.52059657758766,-62.973600333701725,-138.00148647249037
1.55,57.60239864848879,-67.56298435585482,-139.22550377286586
1.6,58.138094308272926,-72.62162323425346,-139.7185796013387
1.65,59.64063952212024,-78.20144067519855,-139.62200606064897
1.7,61.88612179829814,-81.19720183932328,-139.47682777837923
1.75,66.07276104011285,-83.77351513711491,-139.99786478848102
1.8,69.42579587989783,-84.70265055288174,-140.92230022566247
1.85,74.9358739321402,-89.51940198789379,-144.45450624390787
1.9,81.25136598952886,-96.80806169551826,-148.69861648140892
1.95,86.47675941676201,-102.35707808954639,-151.8128432750998
2.0,90.50946296371188,-107.24960806231748,-154.35415512060538
2.05,92.73658910460216,-110.45514987067968,-156.10802352718204
2.1,94.10743092569368,-111.8113634005603,-157.24717842278403
2.15,96.44416287849339,-112.76170816749745,-158.28382860321653
2.2,100.82872325097077,-114.49596895235118,-159.57103145190266
2.25,106.86188034744735,-117.15417819528157,-161.2722856008182
2.3,112.30712217742429,-120.50697456987423,-163.3258714444883
2.35,116.39926443176773,-123.22721425026167,-165.3356381179057
2.4,125.82266702525153,-129.96868989603317,-168.55084789414747
2.45,139.51894622232962,-141.08691422269084,-172.07520289184535
2.5,149.39734965145138,-150.61560314255095,-174.53983686218632
2.55,159.6265763846654,-160.1985046959958,-176.5681451161767
2.6,167.37833547684673,-167.3654524787152,-177.9048873221599
2.65,178.0233970430829,-177.9418971232636,-179.66522660870135
2.7,-165.10933632162224,163.81753181163677,177.45212096941867
2.75,-149.42314027734417,145.95713332278706,174.76169335948393
2.8,-138.10190455650732,132.12467299479508,172.63143343410135
2.85,-130.29565470286488,124.38977716000784,170.86823351203887
2.9,-127.73468560747746,124.10936938739722,169.82965229809312
2.95,-130.39626211905122,129.7944579786677,170.01508230096618
3.0,-129.5051142046812,131.67825081865402,170.15538171946625
3.05,-125.1495230762727,129.2041550684065,169.30740170273575
3.1,-114.49887543270829,119.7885135032283,166.95224486835454
3.15,-110.03767624343489,118.14384921098305,166.09753258578493
3.2,-105.38035267385085,118.75377839889002,165.61889092758818
3.25,-100.28032169655413,117.62917093431385,164.80944568926157
3.3,-96.64514115669046,115.81580813087452,163.94706722935695
3.35,-92.67113934267063,112.7804982803881,163.13186565682122
3.4,-89.64800375371253,110.46145193648292,162.21892924927738
3.45,-89.93853928846512,109.0492502167673,161.6636345007074
3.5,-92.50602862660617,107.95680006035816,161.283701681975
3.55,-95.68586095765653,107.3098167315717,160.77650516688885
3.6,-98.89852600617965,107.41436226140613,160.4346543546924
3.65,-100.84752814739355,108.42166115845606,160.53676540637747
3.7,-99.77209655774514,107.6421959886859,160.2623022347054
3.75,-89.14156321807916,96.42994057872713,157.06973583650253
3.8,-80.28890760546294,85.26812850134085,154.05627174287343
3.85,-80.54660004713158,84.1980005943076,154.173980412211
3.9,-79.2820220663081,81.41679871605672,153.5537962279803
3.95,-75.30878502710446,75.4678749193671,152.1863422515571
4.0,-70.41738158788746,68.02204715551083,150.8955479852096
4.05,-63.582356165044,60.200221707424575,149.38639348332336
4.1,-56.37311141856311,52.656463877437254,147.48384047620635
4.15,-51.7278154486822,48.907431282413675,145.85355060098553
4.2,-49.62116192872053,48.19459357648258,144.69062470432388
4.25,-49.19432782036517,49.146321280763814,144.15206623275336
4.3,-47.29405017258211,49.23300411394077,143.33701331724745
4.35,-41.95989388988694,46.536558392161496,141.59613229976298
4.4,-34.6841457684557,41.66683749957512,139.32957817317939
4.45,-28.935673883768352,36.41278221974177,137.16872962433476
4.5,-21.27526734501665,30.658293579633153,133.84014564044128
4.55,-13.60011465524204,25.761923961927696,128.88697350170236
4.6,-6.169025582026501,22.49062051965301,124.48990708409417
4.65,1.9772210075121806,20.65513354496026,120.3921026637687
4.7,9.801935530139591,19.065118378515805,115.94491781851245
4.75,17.25751716745582,17.392985806234137,111.21769332944413
4.8,24.81865524550449,15.88297602825629,106.94458432090934
4.85,32.49764232801203,14.331712627173594,103.11820218791031
4.9,39.07656149214507,13.41438502702325,99.22022305547851
4.95,44.88522244851899,14.059953182357393,95.83918027484943
5.0,54.68661345755848,18.132541351136222,94.04778577537867
5.05,71.57442167324541,27.44645235638426,95.46669380423022
5.1,81.01657883509617,38.18605485993073,98.18172641693994
5.15,87.04594801045312,52.446819468186305,102.12354106062948
5.2,90.04956494771332,62.7621919954173,104.8202566310815
5.25,90.06281108819164,70.44205539525291,106.71614129172472
5.3,88.96660524024361,75.37679834570426,108.181720521297
5.35,87.59881252315621,78.01303462662663,109.19547896911605
5.4,86.39505207670541,79.33329158369837,109.69846040947742
5.45,84.85965979790959,78.57714885393892,109.06047279876563
5.5,83.40888903075928,76.53687090189595,107.44546510502272
5.55,82.483280498163,73.6614287218901,105.33173416399674
5.6,81.67530512844229,69.26435087405662,102.69288555042306
5.65,80.20607198606257,63.04358545063536,99.36289278746332
5.7,77.22171798035542,54.92166596791072,95.36547367740617
5.75,71.50213557003276,43.56045147245487,90.67546163003998
5.8,58.042801185727264,29.705938324193262,84.9936307539831
5.85,37.12344431991474,19.85589505238698,78.14681897218422
5.9,26.26515761009992,15.133117647750721,76.88225723606698
5.95,19.393876156899644,11.668663542370568,76.34619219290653
6.0,13.947932404552418,9.216788889248296,75.66384844638043
6.05,9.552263819176133,6.950905501401871,74.79846523933047
6.1,5.272718657924125,4.647796914164755,73.24306773953563
6.15,1.0005040395179081,2.3176774947044505,70.79695223753522
6.2,-2.6364673995322243,0.07757175280714236,67.30540234202887
6.25,-5.023381559709594,-1.7874627081723886,62.825245977368574
6.3,-6.673275125661318,-3.3053355022339486,57.66796788706733
6.35,-7.589566968653154,-4.158322804942376,52.37541820161079
6.4,-7.669164147890797,-4.600064047599574,47.54185794024056
6.45,-8.266541559067793,-5.85905246113419,42.224620809666014
6.5,-9.499220266973339,-7.131649476220471,37.39227107316754
6.55,-10.516013070599874,-8.557785174090574,32.930093985412
6.6,-11.309812787078943,-9.752813338482047,27.707039759100915
6.65,-12.27470173037895,-10.699321238046641,23.309182779634128
6.7,-13.42591201980644,-11.648045016990917,19.156331642668476
6.75,-14.366058569346107,-12.70575030313003,15.225774845069528
6.8,-14.798822833764058,-14.000485186814789,11.585891147063073
6.85,-14.331902074482644,-15.055751076841108,8.60451657855603
6.9,-13.9047378760049,-15.135803241488953,6.458991485470834
6.95,-13.603873420065957,-14.664058913172095,4.789649839419038
7.0,-13.290724321761829,-14.079836543273819,3.2784308686915917
7.05,-12.350980358886702,-13.237067034126339,2.4938016965089838
7.1,-11.098788574441985,-12.392973131333802,0.6205096502902575
7.15,-10.27528151216058,-11.862492076822889,-1.32686738851617
7.2,-10.275228872827565,-11.98430519447852,-2.084818780850695
7.25,-10.2797081419499,-12.224993869768284,-3.0495569568541616
7.3,-10.196931354582965,-12.447277404630348,-4.657176372823336
7.35,-10.13308379887591,-12.46608165394745,-5.93965194821102
7.4,-10.159897585200712,-12.216236768829749,-7.105785746536266
7.45,-10.204971103768841,-11.771606146559598,-7.991065257144466
7.5,-10.093295271287467,-11.379442751182829,-7.891131454904487
7.55,-9.803731670602527,-11.166026570674603,-7.288071324458376
7.6,-9.236809040477445,-11.03619608780519,-7.122897491072749
7.65,-8.510519033590748,-11.087219106191364,-7.675283450011517
7.7,-7.9130851449643345,-11.508312742526744,-8.685568686948814
7.75,-7.451214383117374,-12.335447714074798,-9.651714987913929
7.8,-7.237796946999212,-13.863281901795627,-10.126182275300932
7.85,-7.318699084044318,-16.427423805912344,-10.682400925138175
7.9,-7.744881075828392,-19.570528863297664,-11.552129213838123
7.95,-8.237832943510513,-21.05513164844941,-11.53622076297891
8.0,-9.120238426838295,-21.45165643976893,-10.272239913709637
8.05,-9.704272340718667,-22.039059515096906,-9.678471513182792
8.1,-9.848276764106961,-22.681749519177195,-9.578097758777156
8.15,-9.578006094304536,-23.149421565414855,-9.479162693001266
8.2,-9.4100988655836,-23.289430182629314,-8.65797553037014
8.25,-9.337809594737582,-23.269321282494115,-7.222975676378744
8.3,-9.251725006469025,-23.088039351533684,-5.5052911537514495
8.35,-9.05506994035545,-22.7244135635266,-4.148786824763484
8.4,-8.902479670825814,-22.352300635402653,-3.432053195488313
8.45,-8.657101267245578,-22.053906065499987,-3.6257907384472716
8.5,-8.454657110351318,-21.84905207244721,-4.454938043469686
8.55,-8.221516949361847,-21.74798917328077,-5.825556079497151
8.6,-7.754273686082659,-21.4115862960719,-7.956838900378565
8.65,-7.1605504839241245,-20.87848720040876,-10.691900456371847
8.7,-6.676320652706581,-20.359627454858472,-13.659501005873201
8.75,-6.200296603123426,-19.70918680628746,-16.559836386916274
8.8,-5.7896942882954985,-19.098628864472666,-19.222408540044924
8.85,-5.4363437944398285,-18.5336294077551,-21.6174602360532
8.9,-5.229413735586017,-17.94218622424526,-23.76074954588592
8.95,-4.897468662396132,-17.611937503939664,-26.10817615161398
9.0,-4.459225469961544,-17.58798980531209,-28.364407949193875
9.05,-3.7291077342964694,-17.509387551118323,-30.340268790729564
9.1,-3.1548832326984475,-17.082356164982173,-32.17194579104056
9.15,-2.9631533730957433,-16.769861162523494,-33.81071281635605
9.2,-2.8735624355868095,-16.881485516639426,-35.703303948822985
9.25,-2.663043555045034,-17.56476661820878,-38.30539565558726
9.3,-2.5093181687275967,-18.096667341449475,-41.19699235047055
9.35,-2.7308803054749333,-17.98751708038409,-43.679170905087055
9.4,-3.123817344487382,-18.226604519745127,-45.14620685282709
9.45,-2.77360103567248,-19.406200641815076,-46.31782915379848
9.5,-2.1148916951619023,-20.664773712729726,-47.92619687074552
9.55,-1.2006792895464224,-22.21951168101685,-49.8461036347237
9.6,-0.11448954188426008,-23.569563151779455,-52.058354180430555
9.65,0.8850686714318156,-22.835220889117466,-53.74829694139957
9.7,2.9285277068163817,-23.195685261795226,-57.68672318339998
9.75,3.809142902327429,-22.744420454101512,-62.17904260865278
9.8,3.7948490341268015,-22.20135572299461,-64.74640498064143
9.85,4.29375768664885,-23.55606040043507,-66.83129456264652
9.9,4.89018751963401,-24.7003132739007,-69.05769805370268
9.95,5.648047345773321,-25.34812234493489,-71.06622330580338
10.0,5.942777856258746,-25.66363802367809,-73.15721802737083
10.05,5.822835370547855,-25.970792791312693,-74.71090954256854
10.1,5.601005746728802,-26.22132669670088,-76.06345741483122
10.15,5.422667557824829,-26.525596858677602,-77.23164753185843
10.2,5.189233074490262,-26.772113088922765,-77.88460057146882
10.25,4.827795840686094,-27.021106345334548,-78.12493617139026
10.3,4.427469453769023,-27.87469491024442,-78.18963403486704
10.35,4.672849334830835,-28.275696310282395,-78.66509874252509
10.4,5.021880981934094,-27.927051292052557,-79.74270127194563
10.45,5.137625497563518,-27.179681748187782,-79.58242681425334
10.5,5.621444385864363,-26.078559903555064,-78.3618216627605
10.55,5.90551413475966,-23.558410429874286,-77.30528852034655
10.6,6.5265367245626225,-21.337609277396382,-76.01546196605521
10.65,7.220415226624657,-19.804684309141155,-74.94521489181638
10.7,7.651322922778841,-19.17784934167527,-75.13813829651765
10.75,7.681335613731041,-19.77996793640453,-76.11065919351564
10.8,7.9107928713253,-21.02720343812881,-77.39417894048817
10.85,7.944005890247927,-22.128965448205033,-78.59403661410438
10.9,7.785556077775775,-23.50947809126606,-79.47368815550051
10.95,7.678254494238705,-25.240723895181752,-80.64279708826061
11.0,7.406493992509492,-26.916997072154516,-81.81937359888268
11.05,6.988111774308825,-28.79077533713918,-82.49361107719
11.1,6.669899833699799,-30.986373592239392,-82.87856666909356
11.15,6.449002436829218,-33.381585216975466,-83.31577471752684
11.2,6.231427780940671,-35.16218939100266,-84.053334528327
11.25,6.381498239185669,-36.33510763433831,-85.26951804040445
11.3,6.319786468417003,-37.421987185470755,-86.34205840710409
11.35,5.6378029025844905,-37.341231275677025,-86.99030438131027
11.4,3.8593326281669373,-35.28000964105915,-86.53267926304149
11.45,1.6782480179418984,-32.396643056971755,-84.04278075644285
11.5,1.6163761188632244,-30.337663504188875,-85.88608779754857
11.55,0.48172143420596414,-28.27236079942701,-85.76069340970444
11.6,0.29154178694602717,-27.03019119191195,-84.00610099115774
11.65,1.1790529309447098,-25.239674502995584,-84.03068559799435
11.7,1.2374645350940459,-23.633991353732085,-82.62047946285125
11.75,0.850567887699816,-23.108168389790716,-79.5661366275927
11.8,0.05504504580523024,-24.06309360581953,-76.1050116296042
11.85,-0.5926054578615848,-25.800422615166116,-73.76398234374572
11.9,-1.21636504961267,-27.517939890572276,-72.13562230140103
11.95,-1.368868336884842,-28.167686835192452,-70.78686114089105
12.0,-1.4105205267667467,-28.169739068798723,-69.8141114420755
12.05,-1.3787143889659865,-28.159790279035512,-67.65497170933922
12.1,-0.40065461755075693,-27.78372324608431,-66.18333027592546
12.15,-0.3055284374399218,-28.584838833114855,-66.66884942134702
12.2,-0.5561360134815063,-29.25787882440756,-65.61512813491919
12.25,-0.6077818484421871,-29.351619949606942,-64.68394088739007
12.3,-0.3452986907108951,-28.867107450978903,-65.38098757542241
12.35,-0.25146422464765583,-27.81338384725473,-65.71781540109887
12.4,-0.42533064897559236,-26.30610851721808,-65.60167689965294
12.45,-0.36471209445765834,-24.59571559001909,-65.11846796924672
12.5,0.04139907925841048,-22.44695078736399,-64.48563545488973
12.55,0.8977239862227051,-18.767772092484094,-64.12469654931839
12.6,2.7654577796968747,-14.218111993965994,-65.06792966427233
12.65,4.503192482420128,-9.074608312571678,-66.84683862849386
12.7,5.337180329810221,-4.716529308958869,-67.73875938723332
12.75,6.303212908650834,-1.5649407452438329,-68.3103812887671
12.8,7.456286136752737,1.8352796337925332,-68.794565060062
12.85,8.678278415827071,2.362701646005949,-68.87348948112172
12.9,10.149076212072105,0.9333397472715018,-69.55996049526019
12.95,12.003317174019537,-1.1206442049359906,-70.92357495443127
13.0,13.777802623679957,-3.392307039544728,-72.831349987731
13.05,14.700736594528703,-5.399474691172358,-74.9476549939328
13.1,15.4275530665379,-7.059545675261342,-77.40147532358952
13.15,16.046762648208553,-8.983710938603522,-80.05799626270002
13.2,16.44197454532633,-10.841453654948946,-82.61067533978554
13.25,16.46801625876158,-12.39407933137252,-84.72791059844745
13.3,16.434703704099434,-13.696882202725277,-86.42733365501397
13.35,16.395041607496523,-14.894095166434415,-88.15259397503863
13.4,16.147532018096825,-16.162489843860417,-89.81680801659441
13.45,15.790545830345273,-17.558552182282547,-91.30262372585568
13.5,15.586356643806829,-19.03063188103252,-92.7656422056093
13.55,15.736634574300997,-20.175853155262498,-94.0578890715704
13.6,16.390384084460276,-20.019944780564785,-95.6033990307258
13.65,16.78521570886845,-19.514521741442287,-97.95391633680855
13.7,15.896104521233216,-19.848125793791638,-97.36621817628027
13.75,14.830886175774106,-18.090148710707357,-96.0615272349468
13.8,13.787220349430413,-16.355836815008043,-95.94856040381367
13.85,14.253286421088578,-17.094685124113035,-97.98702546501062
13.9,14.589144658218357,-18.632012073962926,-100.57409131170738
13.95,14.654074196454664,-19.62698208646297,-102.0249264220364
14.0,15.385839496465382,-21.17783166042897,-103.40268725255206
14.05,16.722226274916196,-23.27459781307154,-105.07232569907087
14.1,18.516410616041245,-25.74805854683627,-106.75012915955463
14.15,19.80942333662221,-28.748566624041047,-108.53376850348889
14.2,20.29969829060403,-31.276721398630247,-110.54910882700634
14.25,20.34686782517464,-34.060152771507674,-113.58239909409859
14.3,19.85492171287457,-35.75791562108197,-114.47743931981621
14.35,20.888083375739377,-38.109473709418815,-115.72355884481824
14.4,21.74572127506892,-40.04856660976075,-116.61064765859925
14.45,22.25719347986993,-41.280497682386255,-116.93381894377659
14.5,22.936859993586232,-42.767223692585766,-116.78783646438073
14.55,24.354919570205833,-45.44493001789504,-116.73304230610466
14.6,25.97626132542936,-46.12784262549873,-116.52664535942712
14.65,26.90468941248712,-45.74322510766405,-116.1655696450391
14.7,25.58382710437434,-44.36079735108726,-113.69844103322096
14.75,23.537348654621635,-42.47681486148042,-110.24015049656191
14.8,23.304177240829226,-41.945675477657666,-109.3799496242235
14.85,23.088999795776758,-43.629938194214716,-109.35753734756065
14.9,22.111264455002512,-44.73146658540386,-107.84156319600095
14.95,20.694037204703886,-45.957334446626696,-106.92773931306044
15.0,19.824278971198453,-47.00060974170132,-106.09378101726197
15.05,19.351815665485187,-47.71620658055551,-105.22805706467564
15.1,18.46632008494742,-48.52200953944076,-104.97598015669362
15.15,17.50572783992231,-49.3691077684851,-104.23050388923782
15.2,16.81903447900866,-49.91367688906373,-103.01363279367824
15.25,16.363141195750817,-50.49504018961668,-101.58676909166766
15.3,16.246855119541255,-51.11011748108768,-100.81339385973745
15.35,16.03604006628826,-51.71211343164041,-100.95725113011329
15.4,15.971919008117078,-52.12705395035996,-101.6247752744399
15.45,15.689762448027253,-51.95951294097266,-102.06807613264446
15.5,14.988705544670772,-51.240493061727626,-101.77521309981162
15.55,13.968489377058035,-49.79848551555694,-101.00829482543888
15.6,12.265535002517643,-46.99047236842166,-100.1207935033555
15.65,9.607949176113207,-42.67957373533589,-97.90876107017526
15.7,6.6383707992583885,-38.356772173167286,-94.02631727556935
15.75,6.441860299701846,-33.75483390555469,-92.9502689544433
15.8,6.120255448162801,-31.47633836645318,-90.79265703797047
15.85,7.082023208075724,-29.052411885081877,-87.26098537923434
15.9,8.95372289276058,-26.496800201339173,-83.82934886619418
15.95,10.301372014061615,-25.39231897203083,-80.5748732302473
16.0,11.323461667399506,-24.74186622407848,-76.87001726332846
