Time [s],Flexion(-)/extension(+),Supination(+)/pronation(-)
0.0,-15.727697158998499,9.926951267117907
0.025,-15.23341457662757,9.924043567544233
0.05,-14.289331162654898,9.381577168342867
0.075,-13.135424234789566,7.750351885985022
0.1,-12.100584251777635,5.078176153901605
0.125,-11.176948872717189,2.820672799293425
0.15,-10.335546461738248,2.5273148007093744
0.175,-9.577779887133428,3.8273825764351015
0.2,-8.981870383695714,5.574981376072582
0.225,-8.810768021036559,7.271109682830105
0.25,-9.031912548315498,8.75006771923497
0.275,-9.222986208237236,9.82505414315943
0.3,-9.222677012885926,10.062500168131226
0.325,-9.102281569755572,9.474893170170903
0.35,-8.841773890796235,9.205279995082533
0.375,-8.262710357099765,9.624291880470214
0.4,-7.7244326760765505,10.22533257383947
0.425,-7.349639346620226,10.72500301035739
0.45,-7.11024605609153,10.955416277109657
0.475,-6.980067773571102,10.789214039082124
0.5,-6.8141600860004,10.36865412608027
0.525,-6.5773177157196,9.94958401468217
0.55,-6.3469991351049195,9.692540958267738
0.575,-6.138615418625042,9.676355314457942
0.6,-5.916308569678206,9.808369361886653
0.625,-5.648735025830315,9.885676454921454
0.65,-5.263668573578958,9.899426987606466
0.675,-4.786497619306549,10.071577169393912
0.7,-4.428488778375335,10.479983224865153
0.725,-4.311938436784997,10.908159248149945
0.75,-4.342544912875627,11.161874131046511
0.775,-4.466532777093184,11.281142484861235
0.8,-4.660978078359796,11.327779889090658
0.825,-4.801978385679245,11.301377100968132
0.85,-4.83157764660485,11.285499042514216
0.875,-4.778599419127656,11.352669329501648
0.9,-4.648440456752715,11.508615503945824
0.925,-4.487087788397382,11.781698495015752
0.95,-4.382385569210637,12.120967419857939
0.975,-4.387499371287274,12.415758430215988
1.0,-4.488666257580442,12.581373239419625
1.025,-4.603345421864373,12.62340545471499
1.05,-4.6710664694808335,12.634418443346744
1.075,-4.692271919966254,12.684319744006855
1.1,-4.65790745130133,12.774912822346934
1.125,-4.6091282868094074,12.88340201488551
1.15,-4.611438936538796,12.936623195187396
1.175,-4.646622971370269,12.860285778905281
1.2,-4.657899512327378,12.720284165952446
1.225,-4.645299469220157,12.654141781025762
1.25,-4.649122956129367,12.663260117970767
1.275,-4.67446523623424,12.571055986952059
1.3,-4.6934090998666775,12.389585460730116
1.325,-4.697512521863716,12.263523728356901
1.35,-4.695872769055497,12.276183548041113
1.375,-4.686214951405587,12.384349894576584
1.4,-4.670283573382425,12.444450691973792
1.425,-4.68450364003189,12.352932585265394
1.45,-4.7339459840947,12.18251554352003
1.475,-4.7700321353822615,12.085585396503992
1.5,-4.776015133497965,12.12221880202345
1.525,-4.7847864997504175,12.223873534849009
1.55,-4.834431150473245,12.304614139764071
1.575,-4.903007401770598,12.345204945397084
1.6,-4.972264872425562,12.335992923112716
1.625,-5.036749499368359,12.271879583332133
1.65,-5.063214239898783,12.223820966866068
1.675,-5.041636309787434,12.257069529455123
1.7,-5.016410841560098,12.33123380389299
1.725,-5.032777869034305,12.373027060024201
1.75,-5.075924000900629,12.339412140161876
1.775,-5.1102905560805985,12.272823216350826
1.8,-5.134608518347623,12.232730149621993
1.825,-5.136440271139283,12.229633327914163
1.85,-5.103811950215893,12.227446278700238
1.875,-5.075661432750383,12.16080849286317
1.9,-5.065006023718171,12.056298903156552
1.925,-5.052056600800775,12.028448242180069
1.95,-5.053605396380834,12.095488140774334
1.975,-5.079323884979894,12.14317223562254
2.0,-5.097906269227618,12.151149286332808
2.025,-5.087878314870004,12.164818929771274
2.05,-5.057526535402742,12.195215235579505
2.075,-5.019391466668318,12.239115041440519
2.1,-4.9966655449722905,12.303144836897001
2.125,-4.994856278140343,12.359311721487291
2.15,-5.009304889160285,12.370319348370336
2.175,-5.036091178637341,12.341793192112632
2.2,-5.049332161359768,12.307952512246025
2.225,-5.038776013949346,12.291125209605484
2.25,-5.0358981852359825,12.270881328581048
2.275,-5.050613203905605,12.201843382065695
2.3,-5.085175055676089,12.106583998674365
2.325,-5.1299290658767,12.035792383574059
2.35,-5.157435444199969,12.009526135647997
2.375,-5.153936960710406,12.013668802404377
2.4,-5.137616643997907,11.998115144316797
2.425,-5.118242482354615,11.967471859066055
2.45,-5.100543271120751,11.96564688897755
2.475,-5.082930727894477,11.993955701248826
2.5,-5.054362684411611,12.043441208265802
2.525,-5.004173491386625,12.09853352320953
2.55,-4.950766179185166,12.144146363301514
2.575,-4.911378053327002,12.176212361299168
2.6,-4.893540869115083,12.193261564486486
2.625,-4.899242366620226,12.191177056799791
2.65,-4.923603094630894,12.171260899249287
2.675,-4.945230506388854,12.155970396255688
2.7,-4.950094056520517,12.166640202850989
2.725,-4.950093622164664,12.18553436120816
2.75,-4.959447138863251,12.174631634281873
2.775,-4.9617391485668145,12.156483119358501
2.8,-4.955075282379431,12.13303561642438
2.825,-4.960796263270017,12.086995247913514
2.85,-4.958877871199344,12.038188524133602
2.875,-4.920597657861726,12.023656321180718
2.9,-4.87574892128731,12.04770899258231
2.925,-4.860391407299335,12.061778625927472
2.95,-4.875082277189783,12.036460021475303
2.975,-4.918010414000739,12.009480969995545
3.0,-4.982073870246159,12.0145062818645
3.025,-5.042061298621275,12.060520962463778
3.05,-5.071358562174055,12.105581691934484
3.075,-5.079702596804384,12.088935710209277
3.1,-5.082412626962321,12.022290269797523
3.125,-5.072479342074446,11.971421506412106
3.15,-5.057074626140793,11.957840023751993
3.175,-5.076343712983697,11.940324237745592
3.2,-5.132326668799289,11.874895492079977
3.225,-5.178496487700944,11.796967613553052
3.25,-5.188745946029807,11.786775682002315
3.275,-5.170287824323032,11.844315030316219
3.3,-5.140972827759322,11.872772226852879
3.325,-5.113625090982845,11.832298245054934
3.35,-5.108289229655672,11.79343077329758
3.375,-5.129268055211068,11.784589737254061
3.4,-5.162406662104977,11.756555903400281
3.425,-5.232910243137456,11.679900535832136
3.45,-5.347747449523496,11.588787097172341
3.475,-5.4585352113617365,11.56523052996149
3.5,-5.534569663576002,11.633682637515436
3.525,-5.575765181403389,11.706040695535703
3.55,-5.580110822290426,11.723330288776108
3.575,-5.56098811556078,11.723099915073746
3.6,-5.533304376678098,11.765309871895964
3.625,-5.5087071280370274,11.826859155844296
3.65,-5.503434057691173,11.838743481338136
3.675,-5.5257510973514625,11.815568072656577
3.7,-5.548782626692395,11.833385567508797
3.725,-5.541478631441371,11.8999136774843
3.75,-5.526533458196519,11.962972623099656
3.775,-5.540357371152551,11.974388989189183
3.8,-5.573218380159789,11.925019764158412
3.825,-5.6085929806803625,11.847471061818382
3.85,-5.636015388883087,11.765267746675452
3.875,-5.635288761645364,11.707457025727061
3.9,-5.6043377147181745,11.674346002804517
3.925,-5.5767722150193295,11.624890700388809
3.95,-5.583492013479615,11.537488368330695
3.975,-5.630175934267179,11.422213174268794
4.0,-5.6927599300220635,11.303759890081599
4.025,-5.743835787024279,11.20986513118171
4.05,-5.746365626048172,11.178379935554307
4.075,-5.690704646666459,11.212461293875672
4.1,-5.629328905630592,11.237099440538849
4.125,-5.611331690551263,11.181980506504363
4.15,-5.6239582009837745,11.08798313972023
4.175,-5.653952642243182,11.054585035311034
4.2,-5.688166107683181,11.106553568877468
4.225,-5.705819634112661,11.196773895190141
4.25,-5.697830850197833,11.277933834647493
4.275,-5.674625021592555,11.323572475713243
4.3,-5.63782844460805,11.348139221853327
4.325,-5.577741518045989,11.381934670136006
4.35,-5.512947776055727,11.420031073616194
4.375,-5.4690428158503925,11.435578753642707
4.4,-5.433009151857643,11.452974540462938
4.425,-5.399617285925892,11.49784975897821
4.45,-5.3752594397647115,11.548200381810402
4.475,-5.347376963573929,11.59755303493108
4.5,-5.311110499525366,11.625900062875745
4.525,-5.265488563870812,11.609565947884944
4.55,-5.2190842410898854,11.57561527108909
4.575,-5.18520701298364,11.545750753405772
4.6,-5.166228169418367,11.524373364226017
4.625,-5.1705210483309765,11.50912859147995
4.65,-5.194991239624505,11.492052447695242
4.675,-5.23387439845115,11.479194397376798
4.7,-5.2643536622737646,11.45723806366017
4.725,-5.2807371915214825,11.414615594780887
4.75,-5.281908713019251,11.35153515346559
4.775,-5.276369853406269,11.276745369435861
4.8,-5.278482107978707,11.2148924041706
4.825,-5.285153592537522,11.16973432392574
4.85,-5.292616412191916,11.145049678226021
4.875,-5.295363708052719,11.150283443317884
4.9,-5.292676283869953,11.183242940791166
4.925,-5.279608541442754,11.232258543577409
4.95,-5.256817219204853,11.277216009294172
4.975,-5.2415579147740665,11.300646557657528
5.0,-5.247592230259194,11.324438866676374
5.025,-5.2627140569518485,11.388529797888475
5.05,-5.2675563847358395,11.482712170285028
5.075,-5.252818093943231,11.54503926463683
5.1,-5.2382588068474245,11.525629694411593
5.125,-5.264593876370419,11.448007573121288
5.15,-5.365481771272225,11.39703847735667
5.175,-5.605699295085264,11.468076184379415
5.2,-6.110251469188379,11.664992885430486
5.225,-6.99854726253388,11.956925300319485
5.25,-8.27514344597571,12.405191453992884
5.275,-9.907878492335929,13.177330568624408
5.3,-11.916327784370612,14.237199472796249
5.325,-14.173879385926048,15.270924618216153
5.35,-16.561060461059522,15.913817126283819
5.375,-19.107618500938703,15.817744794330904
5.4,-21.774818560379195,14.529250683116091
5.425,-24.473430834668207,11.472433689498853
5.45,-27.428775946704135,6.235798426451268
5.475,-31.252519910246146,-0.45481042989887527
5.5,-35.912298858118334,-6.433431910535768
5.525,-40.53525644264904,-9.95105361814052
5.55,-44.360615006725396,-12.434396927366219
5.575,-47.43432631344366,-17.768308439214515
5.6,-49.98615043454767,-28.54467520937376
5.625,-52.29323275885306,-43.794016968950196
5.65,-55.76647938438443,-61.30539302129396
5.675,-61.73186666433751,-78.41337833926649
5.7,-69.41203163147547,-90.84687529216824
5.725,-75.50465834360618,-96.2313474548219
5.75,-78.2045710810706,-95.73600229500221
5.775,-78.38029543431396,-91.86740388351265
5.8,-77.72096052543483,-87.47119073124117
5.825,-77.47359219821354,-83.98016102488897
5.85,-78.30400691546932,-80.64357427661675
5.875,-79.98230009483292,-76.92954829612746
5.9,-81.54153878806058,-73.41475015317205
5.925,-82.259053750654,-70.44354564832
5.95,-82.11732253958643,-68.00047233384963
5.975,-81.4356474746364,-65.92023138591784
6.0,-80.43263472704875,-63.99527271888487
6.025,-79.18429221738931,-62.23379255712311
6.05,-77.74906823330532,-60.708841369656675
6.075,-76.25034550144953,-59.567176894214796
6.1,-74.93939192775706,-59.203467555331855
6.125,-74.1580014071822,-59.91790105493185
6.15,-74.15099002240545,-61.34070789985067
6.175,-74.89025455250182,-62.73643895064136
6.2,-76.20946650725053,-63.88596249782391
6.225,-77.90952613490082,-64.84222351273348
6.25,-79.53846445426512,-65.24239831590367
6.275,-80.4209394858813,-64.43065731508682
6.3,-80.12096350636637,-62.34840205804687
6.325,-79.05082304455901,-59.336779587765854
6.35,-78.531023877698,-55.70718676925505
6.375,-79.72250691748208,-52.568835829959916
6.4,-82.57903444106759,-51.35721631737657
6.425,-86.31603749112209,-51.80455141637256
6.45,-89.85488029638962,-51.53044846200974
6.475,-92.06259433236548,-48.095951433335244
6.5,-92.4954060980592,-40.501309403382166
6.525,-91.75142557429788,-29.00560392936379
6.55,-90.90161884325819,-15.03293194838071
6.575,-90.66119722024712,-1.127081274735281
6.6,-91.08852288992838,10.683036180837592
6.625,-91.5758063810192,20.411712365308254
6.65,-91.1400941649466,29.348610318919427
6.675,-88.60956111556517,38.66725186041031
6.7,-83.26441201073347,48.694218162511824
6.725,-77.01122039079156,58.21402289506108
6.75,-73.05432028599563,63.29982318893937
6.775,-70.8237178764225,60.45791171609529
6.8,-68.81337353134988,52.81823354836939
6.825,-66.58779839191399,43.926388579707684
6.85,-64.51403693228002,30.819808030246573
6.875,-63.73818202734915,9.901770173047096
6.9,-64.54616554017144,-15.476050547702618
6.925,-68.82648575992758,-37.95230376192304
6.95,-78.61346722199143,-57.14743165561166
6.975,-92.23675467170668,-75.21319414583687
7.0,-104.50813078002389,-88.3151146160029
7.025,-111.29371697189805,-93.64087482156087
7.05,-112.18079818458604,-93.68429724467282
7.075,-108.29592902089183,-90.45252085367565
7.1,-101.37193504557987,-84.97669608007257
7.125,-94.03430923786603,-79.13441119920317
7.15,-88.05785893031664,-75.31660437627343
7.175,-84.26517724050882,-76.05416324708432
7.2,-82.50225420075682,-80.82113439489369
7.225,-81.0043799274894,-85.74151257423428
7.25,-77.71351098861047,-88.14396763488313
7.275,-72.31823826100175,-87.50396622391355
7.3,-67.65317506668293,-85.21871921244528
7.325,-67.05889784920416,-83.71622841873332
7.35,-70.76209617177315,-82.9777302869011
7.375,-77.10491058119709,-81.98150650028644
7.4,-83.87402661035158,-79.68404594705127
7.425,-88.98086631474439,-74.71203692676931
7.45,-92.02267398471963,-66.06723013592966
7.475,-94.46590694745484,-53.7421444898752
7.5,-96.90551099242278,-38.2531510975927
7.525,-97.99949010572308,-20.489469253549903
7.55,-97.38597099647778,-1.7531295798919884
7.575,-98.31814328729406,14.950707136619666
7.6,-102.56970749783575,27.305574856210782
7.625,-108.0246507155359,37.172999248782894
7.65,-112.74231519820738,46.67289455751296
7.675,-115.52017862095013,54.255135267296076
7.7,-115.70296147320445,55.019772937236525
7.725,-114.16108710210901,50.713074281152856
7.75,-111.83217045278184,49.063366426532696
7.775,-109.90992235964252,52.143488407513296
7.8,-107.84137196540594,54.848577134453365
7.825,-104.27190590477927,56.132941474458256
7.85,-98.13508011357415,57.76641619282388
7.875,-88.97322021555689,58.93874270630112
7.9,-78.43094784880591,57.0377944494695
7.925,-68.3235910397994,50.27609058117136
7.95,-60.39442513894718,39.60087122483407
7.975,-57.32032460723125,27.80808472750867
8.0,-61.01910283829635,14.942284544559707
8.025,-69.6092556469814,-0.7791156208399518
8.05,-80.93088088185814,-20.432831860272707
8.075,-92.88285464395625,-41.1910210574456
8.1,-103.78484383487466,-55.96537794953695
8.125,-112.78484714509685,-63.857946998842316
8.15,-118.13317581688203,-69.70140133631196
8.175,-118.71241474685829,-72.6472155156964
8.2,-116.21393484160042,-72.78815997065834
8.225,-113.23041489921516,-73.87642415827861
8.25,-110.22041759443373,-74.4531432685522
8.275,-105.8980817225976,-70.38157461020944
8.3,-100.37373094643523,-61.70655642912603
8.325,-94.83937637871766,-52.68176637959401
8.35,-89.50803023232865,-46.433913509338026
8.375,-84.08548359854304,-42.96246011750976
8.4,-78.56169697256699,-40.88056808999558
8.425,-73.53046068886606,-38.753947608352846
8.45,-70.1476178740411,-35.90079456966178
8.475,-68.675883987065,-31.776866275538108
8.5,-68.47426086246927,-25.83317691757248
8.525,-69.73803645799289,-18.33872548005012
8.55,-72.64022703473276,-9.665229573678669
8.575,-76.62598037081712,-0.34685330260426783
8.6,-80.57132872239768,8.964954916689567
8.625,-83.4648871734871,17.52118838267713
8.65,-85.44447426271657,25.894017687203526
8.675,-87.50307535057216,36.218189181115235
8.7,-89.93707163331788,48.58266025320822
8.725,-91.72852030014629,60.114951332790504
8.75,-92.4785342531917,67.37515388594043
8.775,-93.9690361058179,70.20877995792064
8.8,-96.26795789875504,70.80886439279668
8.825,-97.27201974723633,70.12349402237884
8.85,-94.75839853228082,68.26492370410882
8.875,-88.31525229690604,65.68084929361723
8.9,-79.4823932873359,61.42856722288955
8.925,-69.63920948283653,54.36130022578672
8.95,-58.959966616775226,44.79910455957513
8.975,-47.5730032309483,34.3103803356004
9.0,-35.90467086620326,24.71412995370487
9.025,-25.40511833616182,18.59834883925907
9.05,-17.5507711806745,18.131214399119443
9.075,-11.56202865164819,22.393600933751785
9.1,-5.368269263017361,29.11113324315327
9.125,1.0539760233242785,36.73156327272849
9.15,6.692581695650966,43.52953174852506
9.175,11.469585710164742,48.392020233899416
9.2,15.256831513870484,50.43451027619735
9.225,18.232492120784553,50.23712783458554
9.25,21.048028939538177,51.043883977819924
9.275,24.162753102309868,53.76380168899115
9.3,27.257760188216913,56.205848481628706
9.325,30.062976652422073,57.989607747731945
9.35,32.96690323585779,59.74218955862456
9.375,36.06485690599315,61.119138879122616
9.4,39.108680158532756,61.788772639254944
9.425,41.77037840098461,61.51851417888473
9.45,44.21780379266805,60.86420562939264
9.475,46.31710339922018,60.823440163023676
9.5,47.390786855855715,61.541267001295836
9.525,46.86447255347112,62.290781602915885
9.55,44.63790881027498,61.6836112295799
9.575,40.62783243874045,57.7579964864938
9.6,34.22090419548698,50.4038595205081
9.625,25.221356300615415,43.666359475471175
9.65,14.779021151568166,42.00383388994946
9.675,4.63194420126969,45.63817797290963
9.7,-4.926227941460718,50.6532538169931
9.725,-15.217175907910082,52.73896581033646
9.75,-27.319778554130572,51.505648288876934
9.775,-39.914032011801254,49.55656551951092
9.8,-51.15376522710526,48.97150614370441
9.825,-60.99746213110115,50.578319492399615
9.85,-70.01269295355694,54.66956459136781
9.875,-77.5649559564466,61.032595728290396
9.9,-83.47353788841,68.27218145589555
9.925,-88.47376972699934,73.69785550821813
