Time [s],Flexion(-)/extension(+),Supination(+)/pronation(-)
0.0,-68.07925317392922,-24.22502514677456
0.05,-67.99859863447129,-24.168766502278093
0.1,-67.91717348382281,-24.415670788603332
0.15,-67.76025956497233,-24.709433353611455
0.2,-67.74458297194546,-24.787900372291983
0.25,-67.74316306590757,-24.97794740982894
0.3,-67.8162102992411,-25.017118754952083
0.35,-67.93918597995646,-25.09410472238101
0.4,-68.46077183547189,-25.10212093396641
0.45,-68.99957495420384,-25.135660491190603
0.5,-69.71977577486116,-25.32145074209543
0.55,-70.59694802395335,-25.696004947389707
0.6,-71.4943311552847,-26.200043410776892
0.65,-72.3677275070378,-26.640344550746352
0.7,-73.15730459100827,-26.91303475927315
0.75,-73.8718237257356,-27.189732947628094
0.8,-74.51930572310242,-27.368737099389826
0.85,-75.20360869751316,-27.450001536762485
0.9,-75.90194504706807,-27.37273666550622
0.95,-76.72808288159203,-27.36325512189807
1.0,-77.59732824192683,-27.455464382246607
1.05,-78.60580793861544,-27.36647973215774
1.1,-79.75500275507572,-27.305130491898698
1.15,-80.96748946882967,-27.29985913915303
1.2,-82.14795805959483,-27.215310359154856
1.25,-83.31113876024878,-27.045241988652272
1.3,-84.44580356559811,-26.717302841003928
1.35,-85.48484854086195,-26.438110264783543
1.4,-86.36422955681249,-26.195330246737008
1.45,-87.20856950610795,-25.845341878694033
1.5,-87.98098347769859,-25.384850600784986
1.55,-88.68050030017767,-24.871789604820073
1.6,-89.3520772692407,-24.403548296548312
1.65,-89.95661811301062,-23.915444164309868
1.7,-90.44147915401669,-23.249237331954912
1.75,-90.78252404339835,-22.832372178041524
1.8,-91.14826495076171,-22.40197203714085
1.85,-91.4946485416457,-21.925588995656227
1.9,-91.67869639653702,-21.78005837160659
1.95,-91.86046324574573,-21.530166587014662
2.0,-91.97119072357617,-21.347551019606666
2.05,-92.09072228759514,-21.083875220038067
2.1,-92.27249250506677,-20.783255581600766
2.15,-92.46885266269538,-20.524214100004563
2.2,-92.61592115400947,-20.420094797443657
2.25,-92.75447825644032,-20.390565566741707
2.3,-92.96128122028601,-20.371635951534913
2.35,-93.08076824051705,-20.411247919020088
2.4,-93.10180056433035,-20.375357318287538
2.45,-93.16487413430197,-20.314293299569247
2.5,-93.2852558230322,-20.29866807826781
2.55,-93.37870276993347,-20.35679684383836
2.6,-93.45117279316422,-20.401857075359175
2.65,-93.501890019464,-20.43773021208473
2.7,-93.51194958056315,-20.46688521243171
2.75,-93.51716886895282,-20.45626710175306
2.8,-93.52573865230181,-20.45094655513811
2.85,-93.54444830674501,-20.498094236453003
2.9,-93.57248835121831,-20.490119862111857
2.95,-93.59009854476346,-20.515987155660746
3.0,-93.58831929941765,-20.5430320408655
3.05,-93.60346226309835,-20.52520997501754
3.1,-93.60384616940186,-20.527064621069158
3.15,-93.5986075395645,-20.536632902370915
3.2,-93.5942198643401,-20.55841681491361
3.25,-93.58050262698416,-20.57351662829274
3.3,-93.56950802026485,-20.61695826537178
3.35,-93.56497890387179,-20.61841188675203
3.4,-93.5626758202975,-20.6630812878524
3.45,-93.58122377080657,-20.696210561147055
3.5,-93.5848000286802,-20.712841208428795
3.55,-93.57992831345574,-20.708995231958014
3.6,-93.56147179790308,-20.770949780209428
3.65,-93.50351792195436,-20.74968582122268
3.7,-93.43977610261624,-20.67882670883834
3.75,-93.43497082727977,-20.611235819605255
3.8,-93.51370150712107,-20.478365051835745
3.85,-93.60519171217187,-20.394922555778813
3.9,-93.68129854630224,-20.403217804840462
3.95,-93.738793839232,-20.421211842352342
4.0,-93.7990983755726,-20.403155462028675
4.05,-93.82600223984798,-20.376248100309354
4.1,-93.82370169240092,-20.376503121024214
4.15,-93.8241675861183,-20.29180459193072
4.2,-93.78895985300389,-20.196035414920683
4.25,-93.70704592375061,-20.153934703316004
4.3,-93.6987750411939,-20.001514159810096
4.35,-93.71346191383721,-19.825730314922193
4.4,-93.73587472382928,-19.682562881242077
4.45,-93.80238981457642,-19.53871057042069
4.5,-93.92755671219942,-19.37928437786922
4.55,-94.048202270191,-19.255343491661698
4.6,-94.16614088898669,-19.161649997617413
4.65,-94.26645164828027,-19.0016433381898
4.7,-94.33066657260075,-18.86206784042207
4.75,-94.36726682868515,-18.804353533548493
4.8,-94.3770966032281,-18.848856372261988
4.85,-94.32797196244923,-18.94077104905627
4.9,-94.2419973306017,-19.013857338634793
4.95,-94.16897149823517,-19.192428500552797
5.0,-94.11442346672688,-19.5964284411764
5.05,-93.98210958566277,-20.108960569334307
5.1,-93.90942997313994,-20.565208138551075
5.15,-93.77949482167395,-21.051381269104894
5.2,-93.54755280902916,-21.564061535012055
5.25,-93.41290299456806,-21.916733207610907
5.3,-93.61237149544252,-22.310977184086813
5.35,-94.54284229193232,-23.058605950485923
5.4,-95.98693743825562,-24.88089979572105
5.45,-96.18958202171632,-27.439768152203992
5.5,-95.80454061430794,-28.162265921073136
5.55,-95.2704392131323,-28.836031413566914
5.6,-94.0915226031683,-29.92373550715599
5.65,-92.75905827725221,-30.575711095926387
5.7,-92.18541586420454,-32.03933902784855
5.75,-91.6666169527945,-32.46743134183789
5.8,-91.0425857868109,-31.904307491375505
5.85,-90.54774123087417,-31.68286546999257
5.9,-90.2344974568679,-31.9222380764123
5.95,-90.32064806572576,-31.98424815072488
6.0,-90.69505449551868,-32.06030943663512
6.05,-90.66489062357921,-31.804682442253515
6.1,-90.88639446198157,-31.57012744489061
6.15,-91.3182718087583,-31.704355462602276
6.2,-91.6665694457981,-31.742548627656763
6.25,-92.4119996983433,-31.25637739043245
6.3,-93.36309487218814,-31.013637753095463
6.35,-94.24958647929073,-30.891642101210305
6.4,-95.16508714555849,-30.521076413060896
6.45,-95.97793194928134,-30.30868958168529
6.5,-96.50956032897199,-30.422969771194648
6.55,-97.00569070986126,-30.357743649720938
6.6,-97.823355571233,-29.966675096059596
6.65,-98.6733494105401,-29.877250332501422
6.7,-99.13509858753045,-29.52085191534334
6.75,-99.34071174379145,-28.977790825524067
6.8,-99.35215097610535,-28.659836898653065
6.85,-99.33554215304956,-28.1765829599344
6.9,-99.43661392440464,-27.68041890081155
6.95,-99.5687686188382,-27.350022691624098
7.0,-99.71838623652611,-27.037763233963265
7.05,-99.82376680503228,-26.602760292513945
7.1,-99.89707008306073,-26.32558926890214
7.15,-99.85114035679267,-26.236747798711274
7.2,-99.80632475978882,-26.119329561720512
7.25,-99.65890283597545,-26.146019381346342
7.3,-99.62721081057586,-26.130732390081526
7.35,-99.67465362529613,-25.9986479957082
7.4,-99.58487532027675,-26.163534776104786
7.45,-98.96146598903837,-27.019123941153875
7.5,-98.19000236371977,-27.922843355447277
7.55,-97.34670399426597,-28.365941563241396
7.6,-96.37651670714966,-28.812740013486103
7.65,-95.47508115589018,-29.145476632474793
7.7,-94.1268868077827,-29.935885669606147
7.75,-92.53923937306568,-30.873104207308792
7.8,-90.92155285561678,-32.82334177339594
7.85,-89.1508344478086,-34.65192173728339
7.9,-87.00678601376389,-35.65479989514354
7.95,-84.99345227233665,-36.40433190763625
8.0,-83.2549068992333,-37.60841901699109
8.05,-81.62403966727584,-39.05420992611659
8.1,-80.21661844266283,-40.00704517217147
8.15,-79.29084842621685,-40.52855079489962
8.2,-78.39584210265203,-41.0978994384245
8.25,-77.42963095947403,-41.830091136014666
8.3,-76.39700895113941,-42.22647887444006
8.35,-75.20672291418919,-41.83091892805874
8.4,-73.79710200058967,-41.306422180155636
8.45,-72.45400008036135,-41.17175541923933
8.5,-71.41288095262595,-41.60148677702182
8.55,-71.37626482864962,-41.93029510530855
8.6,-71.71187389447257,-42.60469690063735
8.65,-71.9026958137834,-44.225994332191384
8.7,-71.44209812833425,-45.608159170029644
8.75,-70.56952919910806,-46.51115585662277
8.8,-69.36414558198345,-47.235740987199605
8.85,-68.06938655360459,-47.82783422494064
8.9,-66.59014741070297,-48.09112413595408
8.95,-64.82548722416963,-48.81897911597545
9.0,-62.52594074047883,-50.10605168818932
9.05,-60.17199713458294,-51.72768588515924
9.1,-57.82060993421759,-52.693736707982985
9.15,-54.88755671943007,-52.92863911616644
9.2,-51.695167010930966,-53.50709942173166
9.25,-48.217207972136656,-54.18058074120971
9.3,-44.66880571406154,-54.942002503866505
9.35,-41.42521614505883,-56.381748172222906
9.4,-38.95288552445726,-57.69848007344816
9.45,-37.2370912132365,-58.79837418546054
9.5,-36.56618771193446,-60.712590346710144
9.55,-36.255754870745065,-61.24520637806663
9.6,-35.98257898999226,-60.28134456703894
9.65,-35.60888281784518,-59.59356584756657
9.7,-34.907601356881244,-59.36225711789987
9.75,-33.647186574841356,-58.49132579521719
9.8,-32.4635723006021,-57.60755636700186
9.85,-31.892660445496716,-57.000761505495234
9.9,-32.367220702140244,-56.902696322889135
9.95,-33.986975656594396,-56.21774537291835
10.0,-36.83181717726814,-55.40725358930305
10.05,-40.59941401987058,-54.21703115594999
10.1,-45.13327657107354,-52.406514670813465
10.15,-50.2691123274868,-49.26255858199729
10.2,-55.58717393792214,-47.03742363009426
10.25,-60.94123714839581,-44.83743280880611
10.3,-65.98334536909474,-43.41620969153037
10.35,-70.6883806826849,-42.29299038094397
10.4,-74.62380991992472,-40.99808808653885
10.45,-77.93826896066086,-39.87422451363767
10.5,-80.51349561875396,-38.85346950385654
10.55,-82.89196230968943,-37.8919125311493
10.6,-84.55528856669302,-36.214954072475635
10.65,-85.98441480894697,-34.29972262978211
10.7,-87.049595716757,-34.3008717955888
10.75,-88.20910025836844,-34.785000045371675
10.8,-89.03623492173226,-35.97984018846034
10.85,-90.23838342935483,-36.12974643838266
10.9,-91.49148431728715,-35.273302458834024
10.95,-92.58386811118108,-33.9633612414871
11.0,-93.79359913421915,-33.055223312658086
11.05,-94.3386729116879,-32.425682859466676
11.1,-94.98531677302617,-31.487699690322362
11.15,-95.68673970989333,-30.868669577019574
11.2,-96.1024449057058,-30.42042455558543
11.25,-95.90326268946917,-30.02551566973318
11.3,-95.2428980859739,-30.024153505767433
11.35,-94.78605450424651,-29.57630178963514
11.4,-94.76695552085688,-28.522515850332336
11.45,-94.47258805479862,-28.167613605329134
11.5,-94.40774754037989,-28.050564287759652
11.55,-94.92041953104851,-27.839159860649527
11.6,-95.67884308983696,-27.098998329965287
11.65,-96.46326128396285,-26.63876777564745
11.7,-97.1032608559937,-26.778980227667407
11.75,-97.6537843398428,-27.157866649569772
11.8,-98.05342836424339,-27.238737707946914
11.85,-98.46782710583467,-26.699039916851188
11.9,-98.68444819274562,-25.983971223231336
11.95,-98.64461390760675,-25.586116504612427
12.0,-98.8380924545445,-25.00092224894432
12.05,-98.85532964604371,-24.28493820783784
12.1,-98.82874333262754,-23.95508446008843
12.15,-98.96798163251981,-23.55681085016133
12.2,-99.03331048847785,-23.662690462429268
12.25,-98.8750966563427,-24.32230552651961
12.3,-98.77805736945413,-24.068824304824286
12.35,-98.66695562707714,-23.394899015450253
12.4,-98.71971605202856,-22.753660990976268
12.45,-99.01610196989611,-21.89195777531009
12.5,-99.15070398914297,-21.501928429377035
12.55,-99.18380729386669,-21.688992576164182
12.6,-99.25646053876046,-21.56683812544447
12.65,-99.30913242851194,-21.374301436016694
12.7,-99.36997283180838,-21.4056438092012
12.75,-99.42564649310759,-21.388695501027602
12.8,-99.42006116784681,-21.30349006276699
12.85,-99.39537928004059,-21.368206481131274
12.9,-99.42568437663603,-21.442398813516718
12.95,-99.44675316036476,-21.528629270605066
13.0,-99.4336390532846,-21.58615388692684
13.05,-99.46162243919575,-21.509453121142798
13.1,-99.54551703621632,-21.322889606581022
13.15,-99.7293138084413,-21.10666270396175
13.2,-99.9678925415327,-20.603190905277867
13.25,-100.04263221888203,-19.95486087963098
13.3,-99.92741589137604,-19.6071384029908
13.35,-99.70403626553528,-19.647250326815616
13.4,-99.53457597140778,-19.643909467846722
13.45,-99.38516808804187,-19.783072513901278
13.5,-99.14218287705312,-20.50118919697499
13.55,-98.55773499616376,-21.732594420361906
13.6,-97.73428489638988,-23.188718618354187
13.65,-96.91841932278567,-24.65862497555125
13.7,-95.91928547490723,-25.913592878739927
13.75,-94.40590739988359,-27.068148785422512
13.8,-92.48423085918759,-28.481152961619497
13.85,-90.54286334495809,-29.509833412593057
13.9,-88.93107602588202,-30.045036557265696
13.95,-87.41831429501671,-29.785658914488266
14.0,-86.1961448456669,-28.598782395189335
14.05,-85.09876901255828,-27.55969161273046
14.1,-83.99176085980426,-26.879203208401528
14.15,-82.95549772702728,-26.340892209251333
14.2,-82.28027374188267,-25.566123889300272
14.25,-81.89203279273093,-24.598235815920166
14.3,-81.70686543594046,-23.75976488073656
14.35,-81.55754402144973,-22.986864621408706
14.4,-81.23684045768057,-22.41337771486869
14.45,-80.69483094236544,-22.217723928278517
14.5,-80.20588017949922,-22.04334920151485
14.55,-80.00280410169023,-21.501181672476385
14.6,-80.10231831263232,-20.87862324586897
14.65,-80.25251049639641,-20.617134466962607
14.7,-80.25083022888288,-20.679431941697434
14.75,-80.31506005874937,-20.82626824608422
14.8,-80.44887873067498,-21.0438555759477
14.85,-80.6635058885666,-21.29346289096744
14.9,-81.00274661585118,-21.574333280507084
14.95,-81.47883490378584,-21.893239655543418
15.0,-82.11514494792014,-22.205928159443427
15.05,-83.02421479768935,-22.516712174861265
15.1,-84.07961346640397,-23.00258830969563
15.15,-85.21665655379381,-23.705871973130495
15.2,-86.45465180798682,-24.703819579973437
15.25,-87.83507747338264,-25.726303120661576
15.3,-89.30976130840527,-26.48036156439198
15.35,-90.63901540051168,-26.895809576229922
15.4,-91.9359375624649,-26.877919475116308
15.45,-93.26121139969501,-26.56600148182058
15.5,-94.65686915147874,-26.150970336307328
15.55,-96.16604748978689,-25.42271760317909
15.6,-97.63859843601485,-24.510176639284968
15.65,-98.78686863469022,-23.72692048464561
15.7,-99.56776807129803,-23.330883451406454
15.75,-99.96148375079021,-23.211353328156086
15.8,-100.11721649689717,-22.95467683718208
15.85,-100.27048806401278,-22.270295767074515
15.9,-100.54046601052318,-21.262072032223447
15.95,-100.819552371016,-20.65710589642441
16.0,-101.05752334890362,-20.443652905953005
16.05,-101.30818079537866,-20.190627278903243
16.1,-101.55166660689694,-19.865652935360018
16.15,-101.79367071571562,-19.503189481903433
16.2,-102.01325811877673,-19.258756871888593
16.25,-102.17842364389378,-19.18610792115238
16.3,-102.2736108017404,-19.11872490730654
16.35,-102.3155822781299,-19.054973606173363
16.4,-102.32872847775877,-19.015370439918506
16.45,-102.33780584421898,-18.994518872251195
16.5,-102.33826248060117,-19.019253219576015
16.55,-102.32687034266057,-19.036508374435048
16.6,-102.3390543291109,-19.050986661612118
16.65,-102.33730360154026,-19.04066252384855
16.7,-102.29765895103263,-18.967745914587006
16.75,-102.23982340658247,-18.85676002617368
16.8,-102.2811986609274,-18.72655484308553
16.85,-102.35108646935586,-18.641561325699186
16.9,-102.40332399109086,-18.560950073946543
16.95,-102.43962217661104,-18.49749620069905
17.0,-102.46506573767391,-18.441839040578714
17.05,-102.4653358049232,-18.379697574810383
17.1,-102.48381586917202,-18.33442287950755
17.15,-102.55957035626955,-18.237683819948217
17.2,-102.63002913765386,-18.132469801985295
17.25,-102.64574680243291,-18.082882893782667
17.3,-102.54452816831578,-18.1967267839534
17.35,-102.25673310192424,-18.431759835295345
17.4,-101.79629574892378,-19.0311304426696
17.45,-101.34762441883248,-19.957753332646902
17.5,-100.89453714657864,-20.992162709193508
17.55,-100.27950653495138,-22.389330653890656
17.6,-99.26326809815856,-24.11808241454096
17.65,-97.70098642670207,-25.843609181861925
17.7,-95.4802259536493,-27.46554332362644
17.75,-93.08018884960202,-28.858201831834627
17.8,-90.42835568970683,-29.96737288382084
17.85,-87.43745903373718,-30.724170200160625
17.9,-84.25612592035661,-31.022381063584177
17.95,-81.25850339418642,-31.06542487877241
18.0,-78.66285015810247,-30.807272732020937
18.05,-76.70482232164362,-30.452054368426815
18.1,-75.37787406951969,-30.147128576917297
18.15,-74.66297172000685,-29.710816685774468
18.2,-74.04814128879345,-29.189960390821003
18.25,-73.54192587033037,-28.832920283136826
18.3,-73.13780707778913,-28.568574216915884
18.35,-72.93359141454786,-28.219035543139864
18.4,-73.15137467735819,-27.777529286659124
18.45,-73.36065131234417,-27.465289435265937
18.5,-73.3942776536931,-27.327610003215113
18.55,-73.68983383541469,-27.370191197144248
18.6,-74.32303941291421,-27.569571881560012
18.65,-74.96758959788417,-27.776000952339338
18.7,-75.64012227428682,-28.067144250229973
18.75,-75.17156311228526,-28.041545522968512
18.8,-74.0340794568407,-27.306659498815723
18.85,-73.2254744462801,-26.41693330362455
18.9,-73.14816851547138,-26.258488114499823
18.95,-73.10506582282228,-26.139292232175517
19.0,-72.96156471725072,-26.017618951459415
19.05,-72.19149901841561,-26.073095094782555
19.1,-71.03769543432911,-26.732616665474655
19.15,-69.69212042859344,-27.36236918915336
19.2,-69.20687471817145,-27.40860075379274
19.25,-69.42245878693994,-26.69294862680712
19.3,-70.74313038114742,-25.941488030005
19.35,-72.3591686362179,-25.828238126323672
19.4,-74.35032411797144,-25.799510393032442
19.45,-76.94242494181614,-25.72868206492527
19.5,-79.9212921579997,-25.7723496836964
19.55,-83.15443875852131,-25.916685174798403
19.6,-86.36629740985036,-26.036037743826878
19.65,-89.19454717243545,-25.816566465738664
19.7,-91.61353391920227,-25.56332237261012
19.75,-93.57244824237452,-25.055150602364378
19.8,-95.1559309446063,-24.285255921389645
