Time [s],Flexion(-)/extension(+),Supination(+)/pronation(-)
0.0,-35.48887421865365,-21.54130680204526
0.05,-36.57093015477654,-19.952666642642903
0.1,-37.78012497219704,-18.250377411853602
0.15,-39.108986734045175,-16.686080233034218
0.2,-40.97039600431961,-14.652423878567978
0.25,-42.716341410068296,-12.257281756530492
0.3,-44.40608641005906,-9.811755157718379
0.35,-45.681907104540215,-7.784729759405997
0.4,-46.859140880137424,-6.004748958447333
0.45,-47.684876976250905,-4.670121904153733
0.5,-48.5240238899982,-3.4905032500718107
0.55,-49.057222367430676,-2.436518132040931
0.6,-49.22361810165124,-1.6127732330292186
0.65,-49.32655817938271,-1.3161570729959113
0.7,-49.39708775482736,-1.1501085253116603
0.75,-49.191894645548444,-1.0195947502027556
0.8,-48.70932159874171,-1.1602328535854785
0.85,-48.10878869330125,-1.308994594960696
0.9,-47.69833979999323,-1.855241171195322
0.95,-47.59442432626899,-1.9562949322793202
1.0,-47.76117337889188,-1.815159347396243
1.05,-48.06168920807938,-1.7179894500776542
1.1,-48.43406404715312,-1.5554804592050928
1.15,-48.74530287751187,-1.1092097861065948
1.2,-49.18036593693108,-0.55566986621772
1.25,-49.71548517127701,-0.15839069313087262
1.3,-50.04150459683278,0.15225109469408896
1.35,-50.03016912638245,0.7266552501562105
1.4,-50.03753892235167,0.7803459609072201
1.45,-49.97718257959729,0.6223398311196475
1.5,-49.51381619992997,-0.15481997114372792
1.55,-49.41164829065596,-0.4594149859872086
1.6,-49.14257742648877,-1.0386354493748826
1.65,-48.62751564130946,-1.9606079741952602
1.7,-48.291240679138326,-2.412272059506834
1.75,-47.92043742739698,-2.628966341648218
1.8,-47.504262467703654,-3.0759712277816385
1.85,-46.34686041903231,-5.040022841908365
1.9,-45.41400886003235,-6.7589435312789945
1.95,-44.5377284322336,-8.17677159623107
2.0,-43.63794076618377,-9.399759698381535
2.05,-42.759532644445905,-10.732941224759472
2.1,-42.093769243804275,-11.94617647251576
2.15,-41.622521377369466,-12.894228276205856
2.2,-41.40810894978324,-12.965741742161974
2.25,-41.36102338049757,-12.634448944144934
2.3,-41.334987254080716,-12.448380980640703
2.35,-41.4924422974577,-12.030343780126435
2.4,-41.38407645107938,-12.120629374442684
2.45,-41.355536110979614,-12.053718443086058
2.5,-41.026532371104246,-12.330547833327246
2.55,-40.887695883637136,-12.616905040352135
2.6,-40.47578706398899,-13.331458180825864
2.65,-40.17526950462912,-13.85210121156319
2.7,-39.91814831180116,-14.784122656388353
2.75,-39.19281629976482,-17.11971840681082
2.8,-38.5997722514513,-19.00274341289785
2.85,-37.953499457092605,-20.16809001357894
2.9,-37.24269564440568,-21.19559343681003
2.95,-36.5620253814618,-22.543302567452223
3.0,-35.707168586410255,-24.042981194360053
3.05,-34.67964336958061,-25.773146678066347
3.1,-33.47119504448257,-27.13047301659694
3.15,-32.38391993266717,-28.039328406467725
3.2,-31.95913894267332,-29.177706129498254
3.25,-32.09868496008773,-28.981748734609486
3.3,-32.15663283344881,-28.832902292010935
3.35,-32.09953697955377,-28.8406362749445
3.4,-32.31441343766218,-28.20195753832616
3.45,-32.44533645322318,-28.03841156230853
3.5,-32.694909647054914,-27.54872053164956
3.55,-32.836672714140526,-27.268742283716517
3.6,-33.10358677353077,-27.07578075154846
3.65,-33.55206546283486,-26.445888155087637
3.7,-33.949200605060334,-25.46813625692876
3.75,-34.66988629182898,-23.82338522079358
3.8,-35.34066207236091,-22.76314765404964
3.85,-35.86664045385644,-21.893693108031936
3.9,-36.39633302491023,-21.062850454398884
3.95,-37.09632518327389,-20.532241130244802
4.0,-37.17829751482409,-20.619761674800582
4.05,-37.33503411574723,-21.41286362907755
4.1,-37.790723074805776,-21.973612424014004
4.15,-37.978873608297164,-22.515184196811752
4.2,-38.02838853250218,-23.25450907350963
4.25,-37.85480371438489,-24.06831248477489
4.3,-37.49956283666782,-25.020046211614673
4.35,-37.158193214781356,-26.04362319330589
4.4,-36.69649253539025,-27.67281755023859
4.45,-37.18961296890948,-28.656033308011054
4.5,-37.486657442976046,-30.207153898659477
4.55,-37.876056449080195,-31.272404783411652
4.6,-38.317740879673025,-32.24689545043157
4.65,-38.49886346979834,-33.23629208227117
4.7,-38.496254882519146,-34.051033588234425
4.75,-38.09198001159432,-34.16546401469345
4.8,-37.004530659566086,-34.581456371158275
4.85,-36.18703179260223,-35.31812661149013
4.9,-35.89142511143451,-35.79748616503505
4.95,-35.48834003340123,-35.40603989746449
5.0,-33.823110968673525,-36.637685620005634
5.05,-31.311579850192196,-38.8407133357864
5.1,-28.28201994812876,-42.10158035665364
5.15,-25.328199102076244,-45.267192302372685
5.2,-23.5847643439873,-47.01646719772097
5.25,-23.00887879619656,-47.998001396463565
5.3,-21.424921685031542,-49.8401162486687
5.35,-19.948703087866672,-51.15950057577607
5.4,-18.950764204600222,-52.00359652670861
5.45,-17.163459515702563,-53.95487914957476
5.5,-15.952942935746997,-55.551574828189146
5.55,-15.751431768440264,-56.48784397820045
5.6,-15.916352469896385,-57.02484622136554
5.65,-16.630174908106607,-57.152592575252825
5.7,-17.113858879430627,-57.37172672493332
5.75,-18.59215934592641,-57.25070652064166
5.8,-20.68337585390501,-56.776348408127646
5.85,-23.06877935577132,-56.12541232149192
5.9,-26.14382676365458,-55.82631557392388
5.95,-28.590926216015447,-55.36546060034299
6.0,-31.621021879099477,-54.56714387936225
6.05,-33.51961318793486,-54.01397804926281
6.1,-36.005973214706174,-53.73077548220947
6.15,-37.80967652100071,-53.58932194960132
6.2,-38.650816952585814,-53.04321510503992
6.25,-38.72413979266906,-53.055662229624254
6.3,-38.978099876479604,-52.44544953170926
6.35,-39.52955858070594,-52.80204250306806
6.4,-40.321880135086914,-52.77439921104818
6.45,-41.22391698556715,-52.254299780623896
6.5,-41.64212806679602,-53.052783053619606
6.55,-41.95730965186515,-53.668111707418625
6.6,-41.687664473221616,-54.03222858674917
6.65,-41.5439130676616,-54.51723245259996
6.7,-42.00260337917432,-54.13677687437403
6.75,-41.93817743697761,-54.278528802460556
6.8,-41.556859355000384,-54.24989885846409
6.85,-41.17188887851802,-54.46048034844103
6.9,-39.99750733929021,-54.682514952225084
6.95,-37.521722585554706,-56.086610795093186
7.0,-35.64747643248608,-57.19699904756828
7.05,-35.988015467312486,-57.27737288631658
7.1,-35.552021623934955,-57.49571363365914
7.15,-34.57471073609999,-57.95433951197524
7.2,-34.15117339973129,-58.40536896925452
7.25,-33.325057396247196,-58.83739603619529
7.3,-33.00029072631836,-59.00513753236191
7.35,-32.711483026750166,-59.19366408196698
7.4,-32.28493552733349,-59.11791651065313
7.45,-32.066323289395775,-59.14777656699482
7.5,-31.90974061722198,-59.146020513418414
7.55,-31.90656011107656,-59.049932567595214
7.6,-31.982262029136102,-58.85795743733172
7.65,-32.01081302780669,-58.804542222251754
7.7,-32.0601335449155,-58.604062625217864
7.75,-32.25242980676736,-58.41100174653047
7.8,-32.27091370495752,-58.10425147506275
7.85,-32.4244138654479,-57.95299593188489
7.9,-32.93690191422866,-57.26123107023639
7.95,-32.776625700290005,-56.69433777482292
8.0,-32.37459868965087,-56.6589186717543
8.05,-31.700737300832124,-56.9164040012892
8.1,-30.975715024371755,-57.08272941782889
8.15,-30.0290767372891,-57.32679439591149
8.2,-29.484321654043224,-57.38817414176958
8.25,-29.229702252907245,-57.381705283024985
8.3,-28.845151589588873,-57.404461283313694
8.35,-28.73367015935009,-57.550287499046014
8.4,-29.167991179140447,-56.79731702546106
8.45,-29.13511975282127,-56.353614007042324
8.5,-29.45776745264406,-56.00660112081901
8.55,-28.982734558589293,-56.28226381717479
8.6,-28.69518645854287,-56.288559434698406
8.65,-28.069924275296938,-56.42800317800642
8.7,-27.761269712142866,-56.498209696874966
8.75,-27.581216927692765,-56.60158816899785
8.8,-27.514576872124966,-56.64157317291614
8.85,-27.269093417370115,-56.83487616216301
8.9,-26.96128648340907,-57.018214419353725
8.95,-26.84538345850582,-57.14649498279015
9.0,-26.35693781845814,-57.45431796227817
9.05,-26.191763743187188,-57.752382022258374
9.1,-25.809613425293215,-57.958079810383104
9.15,-25.519588052412114,-58.19634454398939
9.2,-25.133864505477458,-58.39550037257068
9.25,-25.297067841519915,-58.311684082904726
9.3,-25.35735485329947,-57.808078111478025
9.35,-25.730076290101668,-57.631981079722344
9.4,-25.831860030768528,-57.42304641702522
9.45,-25.76065384411274,-57.42500140233428
9.5,-25.71891679509162,-57.541086340539664
9.55,-25.633657169974832,-57.587549032165875
9.6,-24.936615285044436,-57.996778437587594
9.65,-24.800898264732872,-58.33614679196108
9.7,-24.66523419762826,-58.456417703934974
9.75,-24.195724891915226,-58.62095432623042
9.8,-23.898503150549573,-58.84957004039112
9.85,-24.058696855212297,-58.90945621554655
9.9,-23.73457634049787,-58.86545900451781
9.95,-23.682270781541295,-58.99174434002493
10.0,-23.742414593271803,-59.07498252659647
10.05,-23.72637708229062,-59.00821976049917
10.1,-23.777574487220235,-59.0054918291451
10.15,-23.770489879052995,-59.0354272706787
10.2,-23.694772144081693,-58.92917913201621
10.25,-23.749551766430045,-58.92181661175919
10.3,-23.768521603175987,-58.92495818536868
10.35,-23.82021786240949,-58.97283316246537
10.4,-23.826787903197957,-58.93117952559946
10.45,-23.813176981435728,-58.88401829339153
10.5,-23.745644220078077,-58.86467628405302
10.55,-23.667139568717023,-58.833238104498314
10.6,-23.58937790346825,-58.71169876994955
10.65,-23.49792707460606,-58.298416522482725
10.7,-23.817862150150333,-57.77775744757477
10.75,-24.28194868394596,-57.261688355517805
10.8,-24.821091661393343,-56.85589459511401
10.85,-24.973873858582067,-56.56468380006881
10.9,-25.04003950121653,-56.38100996669937
10.95,-25.34103785158823,-55.70311611962169
11.0,-24.63114384407975,-52.57900902947593
11.05,-23.20682153753038,-50.194411656943224
11.1,-25.33030730763064,-48.06086227010058
11.15,-26.27559323583547,-44.92088027589387
11.2,-29.51267234723587,-42.85708065454124
11.25,-34.998665506031465,-39.87779870147045
11.3,-40.88756815630888,-36.40509213740078
11.35,-46.856785320881535,-32.97429235349769
11.4,-52.87143677275882,-28.01334903800983
11.45,-58.09187140791893,-23.29585019455734
11.5,-60.83412721213357,-20.821217475925316
11.55,-61.512622514041595,-19.219118823257688
11.6,-61.82006632213636,-16.822303798238785
11.65,-59.813685283824796,-14.837007265955066
11.7,-57.17711294255014,-15.09954832621007
11.75,-54.84280654687925,-16.368404861486134
11.8,-51.70128486716959,-18.513661387159708
11.85,-48.0006455874229,-21.54181510286621
11.9,-44.5294155710194,-26.19491275608443
11.95,-44.512652655919965,-31.34420600534968
12.0,-44.98569599244568,-32.03343435259847
12.05,-42.46776407018804,-32.77679459561703
12.1,-39.97303294216489,-34.28550132497594
12.15,-40.74130537337262,-34.57266322260032
12.2,-42.349441804931566,-33.54610283304835
12.25,-43.750955293453885,-32.05096774227622
12.3,-45.05093125556159,-30.738847636524202
12.35,-46.32130828879283,-29.339667151729394
12.4,-47.35547875297256,-27.904070066916127
12.45,-48.02766159809512,-27.123856238034183
12.5,-48.53210448783574,-26.38729804540824
12.55,-49.02916970787392,-25.829562701336197
12.6,-49.43391876598689,-25.384730716728615
12.65,-49.824661253281434,-24.556885124274785
12.7,-50.2206985855622,-23.7986442219349
12.75,-50.49634193554467,-23.44201434227646
12.8,-50.7111592751771,-22.933496662878785
12.85,-51.07676946843674,-22.318244065698035
12.9,-51.26282873869356,-21.686925753472497
12.95,-51.216785203333615,-21.722759085400405
13.0,-50.87323839128997,-22.184405033238065
13.05,-50.27188088723665,-22.689113930304284
13.1,-49.38140562155207,-23.857711625096094
13.15,-48.339036299071516,-25.256238628962187
13.2,-47.54128994298214,-26.442527335669862
13.25,-46.90823412703273,-27.058169791021694
13.3,-45.99155661852852,-28.292321297954103
13.35,-45.01225628042232,-29.527813935585094
13.4,-44.07934040155947,-30.67586748384964
13.45,-43.03608863076161,-32.25315720840866
13.5,-41.98342500095856,-33.503776236916295
13.55,-41.35614831273308,-34.314690074288016
13.6,-40.945144583573516,-34.64205112405364
13.65,-40.611186925756186,-34.70208206803473
13.7,-40.249225674041995,-35.01674346345054
13.75,-40.05653199899363,-35.24406300454009
13.8,-39.66555497801018,-35.53471304861148
13.85,-39.282103949842195,-35.97424636045809
13.9,-39.21245357354644,-36.17316039253714
13.95,-39.167714883504075,-36.17873124224488
14.0,-39.106801732434604,-36.338072873437824
14.05,-39.130816115303844,-36.36605127899172
14.1,-39.15398447901178,-36.28041586641937
14.15,-39.234379121344375,-36.24733306241918
14.2,-39.216380185455535,-36.28267971761682
14.25,-39.220468433340024,-36.374420316323665
14.3,-39.24278035879584,-36.300043734682745
14.35,-39.262715230725206,-36.384146839825995
14.4,-39.307553748519865,-36.418345693948595
14.45,-39.33495569745679,-36.40178020261218
14.5,-39.33063820355558,-36.36477214648606
14.55,-39.38694295627492,-36.398887890255736
14.6,-39.410379133336484,-36.469531176904454
14.65,-39.419811876166314,-36.48512170324928
14.7,-39.42017096704952,-36.535195402237676
14.75,-39.401730453433956,-36.484134193295105
14.8,-39.39562158011273,-36.51948837409101
14.85,-39.40506115692071,-36.62294158529773
14.9,-39.43193064605521,-36.66119721723943
14.95,-39.465755816028974,-36.61998540120982
15.0,-39.6344871273388,-36.60050405914771
15.05,-39.661189979949235,-36.58029281508083
15.1,-39.660947473987484,-36.567663941328206
15.15,-39.70233961701777,-36.570785979202526
15.2,-39.73603184322613,-36.599366540400545
15.25,-39.86598627716683,-36.62176600093521
15.3,-39.92161711299001,-36.65145062725323
15.35,-39.93760980028417,-36.74942600345643
15.4,-39.87417577551601,-36.800115210803924
15.45,-39.90904076131594,-36.92817947363972
15.5,-39.897532309252234,-36.93589686294585
15.55,-39.919479651266535,-36.991077369218395
15.6,-39.915012837138065,-37.03690169684538
15.65,-39.91293957557328,-37.094465658953574
15.7,-39.848110902915266,-37.11839571480943
15.75,-39.732386660122096,-36.98473097546978
15.8,-39.59878903459474,-37.03026530428644
15.85,-39.657523709008665,-37.04813225276326
15.9,-39.73520835574073,-37.053695125013654
15.95,-39.763470272124344,-37.098884473766475
16.0,-39.743383216970535,-37.06000102850954
16.05,-39.76753466371835,-37.14961015668518
16.1,-39.72063949947691,-37.141210715702194
16.15,-39.70530803471891,-37.122598442979594
16.2,-39.72849217004312,-37.1601072783057
16.25,-39.626783684601506,-36.93469310998689
16.3,-39.54314466303257,-36.88644695502784
16.35,-39.79521727794603,-36.98002664712597
16.4,-40.13678691552383,-36.60503051625595
16.45,-40.45333704729815,-36.318422828194024
16.5,-40.48417349157201,-36.36941761289615
16.55,-40.34384757988831,-36.73087639328794
16.6,-40.12998843221411,-37.04831058272497
16.65,-40.10353689415345,-37.236495001574106
16.7,-40.23167442436588,-37.26968001352052
16.75,-40.17072460955225,-37.24608287732249
16.8,-40.205505540042786,-37.41137868853739
16.85,-40.09555563887549,-37.66581210601521
16.9,-40.11994689828858,-37.84637885285039
16.95,-40.180807595072224,-37.791987025534915
17.0,-40.2562186462576,-37.66108344331848
17.05,-40.721443352545265,-36.883722526358056
17.1,-41.26171316225085,-36.26236665570035
17.15,-41.459335820264776,-36.102677162141
17.2,-41.152991580836456,-36.55512381819905
17.25,-40.94710882404847,-37.606734541183954
17.3,-40.19153505633516,-39.08435684034598
17.35,-39.22389148438563,-40.9386131385066
17.4,-39.17688080708507,-41.78016815951233
17.45,-39.6059231541056,-41.81236067661353
17.5,-40.733238684151516,-40.96678446881768
17.55,-41.53727386356377,-40.11865958308127
17.6,-42.39577743944578,-39.92941173962878
17.65,-43.14954546318825,-39.715276027017964
17.7,-42.999500223168496,-40.79805718881097
17.75,-42.93490834887625,-42.548230059879
17.8,-42.675660872069486,-44.3314167321473
17.85,-42.1027554121502,-45.47036759292455
17.9,-41.63217573111895,-46.31214309956915
17.95,-42.14500708514393,-46.26138767870505
18.0,-42.84976263829252,-46.06660463073364
18.05,-43.07701563922675,-45.86228924570167
18.1,-42.88530805171142,-45.14439677862286
18.15,-42.97578997117998,-44.25864688567396
18.2,-43.397941718383386,-43.82211719514795
18.25,-43.857069071280115,-43.441703582729104
18.3,-44.23158029821716,-42.72846439177122
18.35,-44.64882653998425,-42.072516177762324
18.4,-44.65603526981565,-41.731530749570815
18.45,-44.93961344407009,-41.578075238329816
18.5,-45.13025107142933,-41.48407360661501
18.55,-45.30906603752321,-41.308130167424295
18.6,-46.20603677379566,-40.71575965583983
18.65,-46.60571109060307,-40.02328837264437
18.7,-46.54610886711586,-39.344270282356995
18.75,-46.61040162865038,-38.81885366895009
18.8,-46.468849975297296,-38.33976261813768
18.85,-46.372997578747025,-38.09884087053698
18.9,-46.12456247119158,-37.899950943731625
18.95,-45.82080216168915,-37.73947885515355
19.0,-45.37590808267865,-37.15084620063465
19.05,-44.848278336225356,-36.01717982268209
19.1,-44.81365608022548,-35.03367387528768
19.15,-45.01234136248548,-34.524786625623776
19.2,-45.262386765371524,-34.58788663513319
19.25,-45.39383859146106,-34.91720880546223
19.3,-45.53858554843687,-35.05190007865124
19.35,-45.57584319491334,-34.765523247628465
19.4,-45.52037926699014,-34.424172516121295
19.45,-45.313936449861735,-34.34111865007727
19.5,-45.10578675522339,-34.3079044055993
19.55,-44.94843465272175,-34.36675044108896
19.6,-45.08667144734591,-34.364114831403135
19.65,-45.14070805910629,-34.472022541354725
19.7,-44.69745934833429,-34.4372035929282
19.75,-44.20148320463107,-34.688239524338535
19.8,-43.9016660970977,-35.035286196419115
19.85,-43.709790405903654,-35.40824870367758
