Time [s],Flexion(+)/extension(-),Sidebend left(-)/right(+)
0.0,-36.84621288323744,-9.562686755343728
0.05,-36.2667577493634,-9.497983309903473
0.1,-35.243948270690304,-9.039153065765756
0.15,-33.68929479449278,-8.271870715590094
0.2,-32.106629210759465,-7.56302721477835
0.25,-31.08007661707831,-7.263787826474376
0.3,-30.554919912134572,-7.329700899498109
0.35,-30.21619734882174,-7.543913862512571
0.4,-30.001007291613714,-7.729890726143713
0.45,-29.895075080092585,-7.77832990200997
0.5,-29.922131384076966,-7.776531533505374
0.55,-30.140389271600682,-7.763010159275898
0.6,-31.42041395589289,-7.863233296753153
0.65,-34.52115981495912,-8.382785083781954
0.7,-38.513761543065534,-9.093544510740227
0.75,-42.13248810934556,-9.64162653919081
0.8,-44.86423805941804,-9.847484368329138
0.85,-46.95437372911135,-9.834248250496186
0.9,-48.10355698239228,-9.842783636433014
0.95,-49.0838646437645,-9.975417498235778
1.0,-49.47755938167105,-10.185639021879226
1.05,-49.78964949496429,-10.40174292867746
1.1,-50.06742881740851,-10.559848651703804
1.15,-50.35764275588181,-10.68123538321768
1.2,-50.69976494824382,-10.921772627402657
1.25,-50.9056543712529,-11.268692643803575
1.3,-50.75532447657192,-11.63473123746688
1.35,-50.129650817519845,-12.178415016349986
1.4,-49.280059059695546,-12.834109832000808
1.45,-48.45686782073869,-13.172189366428572
1.5,-47.75234716753019,-13.285060082373503
1.55,-47.077962529592746,-13.400168727045848
1.6,-46.592464566511275,-13.612890408120492
1.65,-46.50633046211803,-13.729212451548804
1.7,-46.49706691610493,-13.595313810748767
1.75,-46.47529113400882,-13.40684163239447
1.8,-46.80149837981334,-13.41013741993414
1.85,-47.36488581363559,-13.524532928993187
1.9,-47.95486537826598,-13.511278583728929
1.95,-48.64778429377217,-13.60294795108579
2.0,-49.331591766928625,-13.629105583440753
2.05,-49.43075496163676,-13.335222765489506
2.1,-49.1142925313111,-12.696165347698223
2.15,-48.70966623238588,-12.094959833143612
2.2,-48.42163799908692,-11.808797719228012
2.25,-48.2297601545562,-11.800175962007657
2.3,-48.277108667729806,-11.848428405171378
2.35,-48.824441914790995,-11.707003629727007
2.4,-49.7282600666146,-11.348866166251359
2.45,-50.91333030673539,-11.06234280391288
2.5,-51.83454537696272,-10.897516530222244
2.55,-52.36596921628641,-11.109039078864956
2.6,-53.139208287418,-11.656092280521687
2.65,-53.98824734951747,-12.095959927637795
2.7,-54.7425173631683,-12.464792832094119
2.75,-55.56247673298227,-13.027981711659386
2.8,-56.43135689505488,-13.88758780629161
2.85,-56.988178533156834,-14.505502535288525
2.9,-56.929957276019266,-14.59183296157776
2.95,-56.72807713327833,-13.902431143627505
3.0,-56.85160618019902,-12.639534566686189
3.05,-57.6515768286019,-11.083525245727753
3.1,-59.026971764255215,-9.480354783035612
3.15,-60.01640298211164,-8.250042881650941
3.2,-60.1976866563723,-7.958635391988769
3.25,-59.79364792948394,-8.519994151619436
3.3,-59.19711689003579,-8.834538845589334
3.35,-58.61863713057483,-8.745955456175048
3.4,-57.93294959981688,-8.626135295786563
3.45,-57.11197018729891,-8.813704235122938
3.5,-56.360101854777255,-9.064130343263544
3.55,-55.79349716763967,-8.998725476269993
3.6,-55.865652740673816,-8.757278096123573
3.65,-56.16159103116584,-8.832971344264154
3.7,-56.4158770585244,-8.767818859070834
3.75,-56.77017388195439,-8.561375658730812
3.8,-57.063094670538455,-8.544948012113997
3.85,-57.17152101254857,-8.77027274049129
3.9,-57.192925089751576,-8.702994133599866
3.95,-57.195593927219214,-8.308737485458591
4.0,-57.32421576957477,-8.02555758930493
4.05,-57.205501353153764,-8.215564815345068
4.1,-57.001337897702854,-8.450606661025486
4.15,-56.93507108660071,-8.43363445431552
4.2,-57.062200957415214,-8.310637409785043
4.25,-56.60090755803946,-8.267139572392328
4.3,-55.79483727518253,-8.447856417772782
4.35,-55.08220408286269,-8.795479152626738
4.4,-54.17117040183221,-9.071239039341911
4.45,-53.78677160704592,-9.075169991580712
4.5,-53.59486469563203,-8.985899897031498
4.55,-53.29095599789466,-8.927775972213288
4.6,-53.145980906925644,-8.780524232425336
4.65,-52.804814882836226,-8.590484650092042
4.7,-52.1140828398778,-8.48795685452224
4.75,-51.120176791144225,-8.438644120880866
4.8,-50.181787055174226,-8.447479553433086
4.85,-49.57134991871605,-8.50934577160628
4.9,-49.276400469318354,-8.458823814310627
4.95,-49.312454741786624,-8.41448948421259
5.0,-49.369368636315876,-8.614859187761404
5.05,-49.41927619784716,-8.80196975796507
5.1,-49.47080288788164,-8.789840011662035
5.15,-49.464056033536494,-8.907110158972749
5.2,-49.48228530180623,-9.199155820344576
5.25,-49.61347378058877,-9.29247038521793
5.3,-49.72033542601843,-9.429877649466064
5.35,-49.75237121257227,-9.619377200426223
5.4,-49.68225635956513,-9.432096717099643
5.45,-49.63394977181777,-9.125110404383653
5.5,-49.52569845684939,-8.842940878126955
5.55,-49.360544846827295,-8.644717635083374
5.6,-49.11581253537974,-8.735591899600152
5.65,-48.65317741892752,-8.721143913066628
5.7,-48.22449059541654,-8.69233577659306
5.75,-47.87663227865918,-8.779619278061357
5.8,-47.63288062025914,-8.771042109396445
5.85,-47.437294787943,-8.56520853520566
5.9,-47.39145584617548,-8.159432472967792
5.95,-47.401957247633845,-7.929991016031113
6.0,-47.322825005519405,-8.014933026766043
6.05,-46.75208848992334,-7.715902175976929
6.1,-44.81522093674263,-7.27501346092736
6.15,-41.192591549789405,-7.00055639087806
6.2,-36.07715482233762,-6.376215658993186
6.25,-31.599984242549706,-5.40742505449467
6.3,-28.202545917059023,-4.988507324468168
6.35,-26.33889488548859,-4.859864185334358
6.4,-25.106128664943324,-4.841320350161255
6.45,-25.315617058867122,-4.8849795674011105
6.5,-27.037758685247272,-5.190275106629585
6.55,-30.418406019079306,-5.543000986882482
6.6,-35.52877628836087,-5.9203001812518234
6.65,-41.46040335669044,-6.375745654158068
6.7,-47.15731553612946,-7.031992019542566
6.75,-51.641641266657246,-7.56367979523363
6.8,-54.862183605520634,-7.956772118804885
6.85,-57.738306409138225,-7.603652928248075
6.9,-60.238152775538595,-6.661189120000814
6.95,-62.86716153289564,-5.821475177392638
7.0,-65.53548841459776,-5.188184540706902
7.05,-67.69324858068602,-5.109365343074983
7.1,-69.74848331766127,-5.218654113852596
7.15,-72.13483424476566,-5.076608342474394
7.2,-74.14681762684624,-4.959810579044549
7.25,-75.71605272999645,-5.1934999960385735
7.3,-77.35139744357058,-5.334125595158207
7.35,-79.03068230911337,-5.6868235927405015
7.4,-80.34573458097712,-6.359007486145391
7.45,-81.3470960017127,-7.260845715543036
7.5,-82.58262443862988,-7.743806555131735
7.55,-83.65327152916652,-8.072477374159151
7.6,-84.80290524481548,-8.355069528096303
7.65,-85.49486328185847,-9.017762269395726
7.7,-86.062631632868,-9.368223823031137
7.75,-86.36681061233381,-9.629917966667183
7.8,-86.43902418530239,-9.662006206698658
7.85,-86.61224149541921,-9.898959556234244
7.9,-86.59477403109318,-10.027087643857032
7.95,-86.55151624759425,-10.008276809311678
8.0,-86.47427923591174,-10.37157726004115
8.05,-86.02737956170118,-10.753055634924488
8.1,-85.84937968557713,-10.493926021190521
8.15,-85.88118574204992,-10.606538185713394
8.2,-86.13630991374275,-10.743158751011961
8.25,-86.1813363451187,-10.867067621624564
8.3,-86.06622707392917,-10.809401881446695
8.35,-85.80289185307863,-10.90482869562024
8.4,-85.75380831129105,-10.845840057910888
8.45,-85.55286070700363,-10.85526033320697
8.5,-85.22019803558662,-10.803420054652914
8.55,-84.97697871332903,-10.919265656166509
8.6,-84.48252348321758,-11.187385940684637
8.65,-84.02945109059469,-10.896305892157553
8.7,-83.69239798304527,-10.480677659793393
8.75,-83.35298673836745,-10.095446488266262
8.8,-82.8840268852952,-10.016364020497873
8.85,-82.2021831415245,-9.410182751940999
8.9,-81.69591840921026,-8.45488519522728
8.95,-81.23782660153624,-7.301371816704036
9.0,-80.69861586489256,-6.981965887948949
9.05,-79.84892287332211,-6.708569262261755
9.1,-79.10027908891753,-6.42749776564727
9.15,-78.1565888297719,-5.8889355376086145
9.2,-77.3740821066012,-5.937281794915626
9.25,-76.52462946966,-6.223776860851117
9.3,-76.07347608839471,-6.203128127497341
9.35,-76.05651275164414,-5.427760129018771
9.4,-76.33182891755057,-5.474334508743313
9.45,-76.44096013908766,-5.638981363274232
9.5,-76.3373544774635,-5.724878057478103
9.55,-75.82564139742067,-5.948754170010099
9.6,-75.1855482479528,-6.140306256672304
9.65,-74.67431635303409,-6.353643236789701
9.7,-74.0261606002047,-6.47803817509317
9.75,-73.3738878154575,-6.525794456222698
9.8,-72.56454448743129,-6.300830600849138
9.85,-71.738171961974,-6.144719194430623
9.9,-70.8018986099956,-6.078645325234241
9.95,-69.88707978181587,-6.0499821051602565
10.0,-68.81051783411426,-5.8351512103079095
10.05,-67.77755355722554,-5.714613917743215
10.1,-66.8510381706632,-5.542680489164443
10.15,-65.98939134021018,-5.414059721585134
10.2,-64.97964507691403,-5.479699294996094
10.25,-64.03338507912994,-5.5094908171197385
10.3,-62.95912486854054,-5.578731055783079
10.35,-61.84118391153441,-5.669136831132638
10.4,-61.05141062721188,-5.728243986129555
10.45,-60.35540871849156,-5.731440323927317
10.5,-59.90103454569828,-6.143304877098665
10.55,-59.54794599987801,-6.527520348388934
10.6,-59.25577649343557,-6.598285036413368
10.65,-58.84477658246561,-6.616651309909427
10.7,-58.48035872465958,-6.7035691286865156
10.75,-58.248370674885415,-6.93923122168679
10.8,-58.21644101079213,-7.110067884261958
10.85,-58.3573288382564,-7.052705418438306
10.9,-58.69337048160508,-6.943432337235953
10.95,-58.935683306899435,-7.170665788460399
11.0,-59.09634067660811,-7.43406292905897
11.05,-59.19296374628932,-7.495108101472099
11.1,-59.39217018811333,-7.420377535469309
11.15,-59.53660483981795,-7.232094056785069
11.2,-59.48444874825134,-6.900307571106427
11.25,-59.49854599702055,-6.81499583734898
11.3,-59.459289250125565,-7.089041798222609
11.35,-59.39880644744956,-7.3293401640083635
11.4,-59.160010276201135,-7.5029879065985
11.45,-58.96017110029309,-7.612523300070132
11.5,-58.90867316705411,-7.6569325185722645
11.55,-58.9412025607883,-7.739337668012685
11.6,-58.99899824855185,-7.876361351280845
11.65,-58.973240033216484,-7.965530348618606
11.7,-59.0067716415193,-7.873505291437063
11.75,-59.036279354867716,-7.69338890735669
11.8,-58.98072518230086,-7.753969906776424
11.85,-59.16098406178165,-7.791647214141093
11.9,-59.6609421062748,-7.978843638543361
11.95,-59.94775642994496,-8.348550484115293
12.0,-59.665708532607724,-9.15069436758732
12.05,-59.47610485515279,-9.834658719741011
12.1,-59.87423802120778,-9.591224446349507
12.15,-60.616242084227686,-9.046081597589263
12.2,-61.450957721098014,-9.043823849925587
12.25,-62.245553834993636,-9.03919386043045
12.3,-62.84802355454718,-9.289624407213827
12.35,-63.67626020300514,-9.356731537269187
12.4,-64.91853473528204,-8.897995092106187
12.45,-65.90581628701597,-8.070159866154365
12.5,-66.4644190219481,-7.028297839659838
12.55,-66.5232487834206,-6.047286926665152
12.6,-66.09617162340717,-5.419055213624278
12.65,-65.70328256237985,-4.966459541000814
12.7,-64.96088497003635,-4.5289331755313125
12.75,-64.12689033666774,-4.00142546606015
12.8,-63.78342798097098,-3.7725112104676057
12.85,-63.24931887437378,-4.045773957465704
12.9,-62.56164464672067,-4.3281692404249155
12.95,-62.102637956812686,-4.58601204488035
13.0,-62.0594549257463,-4.854041494505257
13.05,-62.50313698731932,-5.048358485225411
13.1,-62.939200076892604,-5.351419910883673
13.15,-63.20698889362341,-5.676070966566053
13.2,-63.27733699874295,-6.023614613102789
13.25,-63.18252928393179,-6.367358222388568
13.3,-62.934006138846726,-6.825541530784542
13.35,-62.85850246519674,-7.199314788540987
13.4,-62.730715710459414,-7.565580036487166
13.45,-62.559311419032746,-7.910238687291515
13.5,-62.39924822713515,-8.078066352511453
13.55,-62.35810737063534,-8.174040487637264
13.6,-62.36295857517126,-8.371157102323224
13.65,-62.406601480529325,-8.584887812963338
13.7,-62.443020653691214,-8.90231668325576
13.75,-62.27876778292116,-9.329105822706902
13.8,-61.98265411613222,-9.615626444675941
13.85,-61.5221933815099,-9.623828081982717
13.9,-61.07519205901809,-9.722847538574516
13.95,-60.79677200740607,-9.666275073451079
14.0,-60.63662109136083,-9.530320876880516
14.05,-60.44730348767028,-9.378282537968062
14.1,-60.039550465055484,-9.227013542836696
14.15,-59.83315381265998,-9.260576057255543
14.2,-59.897381313101754,-8.94611363610453
14.25,-59.77262982044547,-8.969707603923208
14.3,-59.605619487003736,-9.533749418756313
14.35,-59.52124614170735,-10.13247010466603
14.4,-59.56856800338394,-10.23678376659968
14.45,-59.990967537925854,-10.052169860911336
14.5,-60.58601107497149,-9.856432363452276
14.55,-61.102927366627,-9.433879580531737
14.6,-61.36693030378708,-8.885922561481765
14.65,-61.736135448078336,-8.553555770954572
14.7,-62.137034109291676,-8.46994833143034
14.75,-62.24343048826849,-8.526740311149174
14.8,-61.99259111556759,-8.534171709931567
14.85,-61.73515946308526,-8.528895249123995
14.9,-61.66000715238326,-8.432507526759904
14.95,-61.57473393753522,-8.262717248582208
15.0,-61.47480756472386,-8.060278335751681
15.05,-61.3719934202602,-7.971516623383
15.1,-61.26922963770539,-7.924821467999907
15.15,-61.192757600386216,-7.958428120367472
15.2,-61.09846477369754,-8.08016423339357
15.25,-60.981642927942985,-8.233672586384627
15.3,-60.79465144160611,-8.5650996832538
15.35,-60.488336899185555,-8.801561446824715
15.4,-60.24738871779923,-8.99254077755574
15.45,-60.09300373146863,-9.078098572738433
15.5,-59.91933021097518,-9.14525977389184
15.55,-59.714468361413196,-9.170882069841893
15.6,-59.49035566575326,-9.10058601713459
15.65,-59.20939097251665,-9.119095153283732
15.7,-58.93402059918512,-9.172745856654995
15.75,-58.63563437153453,-9.019871952263678
15.8,-58.40065975459154,-8.861125910266427
15.85,-58.17957275669189,-8.817591552293829
15.9,-57.98833066219775,-8.80283181044165
15.95,-57.8185824622156,-8.741701518206776
16.0,-57.62255215479698,-8.506348141167743
16.05,-57.61125257939003,-8.4744103083765
16.1,-57.61164735082946,-8.727696687477398
16.15,-57.58727939717382,-8.878021746486919
16.2,-57.515078035046315,-8.736374065298945
16.25,-57.43437026414684,-8.642470686879856
16.3,-57.40327819869676,-8.64656729655076
16.35,-57.35895868763188,-8.842130872909413
16.4,-57.268474249592025,-9.456260721789526
16.45,-57.09638025508435,-9.938612410878418
16.5,-57.0896324849679,-10.000645016816753
16.55,-57.292593283170305,-9.630551471518967
16.6,-57.41773963579882,-9.334743057147511
16.65,-56.97430719725106,-9.109842697646727
16.7,-55.59841364846892,-8.948050613018307
16.75,-53.000854909209735,-8.70431926619113
16.8,-49.48107680762349,-8.34949741439894
16.85,-46.12358663083185,-7.580543135737854
16.9,-42.89217024124249,-6.725851946737346
16.95,-39.29191062046634,-6.408240194747854
17.0,-35.383310328519734,-6.100847424618976
17.05,-31.923414664884962,-5.330599876290916
17.1,-29.435487790437136,-4.349851974202532
17.15,-27.505633111364048,-3.5069794007363932
17.2,-25.80073107738647,-2.855132676322149
17.25,-24.41535347189018,-2.4144550578306125
17.3,-23.415861828725294,-2.3645725626302325
17.35,-22.76230320204286,-2.5205972705632274
17.4,-22.379902549583615,-2.7133772636912536
17.45,-22.223832411744528,-2.83920619939529
17.5,-22.1735034234162,-3.0003819098738185
17.55,-22.33114329168228,-3.35704922012865
17.6,-22.482158524386296,-4.151796099256635
17.65,-22.486888303500823,-4.948172897082426
17.7,-23.029170363828783,-5.384289746963246
17.75,-23.88226424911979,-5.404043703850086
17.8,-24.769664071671947,-5.541815543656315
17.85,-25.839090945099038,-5.61917923046297
17.9,-26.9845954766473,-5.311539392955535
17.95,-28.035265048977077,-4.996499654188634
18.0,-28.937010279566657,-5.079794751815239
18.05,-30.00732677082278,-5.3043894630477215
18.1,-31.293918952297528,-5.368013564830578
18.15,-32.720156178459185,-5.443613938509594
18.2,-34.28836963544135,-5.463107847179584
18.25,-35.892072221249684,-5.396406356901898
18.3,-37.63295948919897,-5.297153419100024
18.35,-39.30382509485058,-5.51508876978414
18.4,-41.13149283825955,-5.846879816107781
18.45,-43.133138779553164,-6.306808446564863
18.5,-45.254394447590485,-6.831159525559649
18.55,-47.34775892813246,-7.3568632930530695
18.6,-49.145778805906694,-7.868330618998687
18.65,-50.88743909387738,-8.626320898174564
18.7,-52.4434890985546,-8.935608621331006
18.75,-54.13943464161079,-8.671414256231536
18.8,-56.44532797603847,-8.129681725359566
18.85,-58.91093001144778,-7.674616948065314
18.9,-61.334511819600266,-7.705683659079752
18.95,-63.72825790298406,-7.671157618801791
19.0,-65.58902930721027,-7.324442050712728
19.05,-66.95520268572447,-6.817048117190569
19.1,-68.1340714698669,-6.3891570884629765
19.15,-69.11233625573308,-6.066685358788235
19.2,-69.84776637771591,-5.687065427272577
19.25,-70.2940922889405,-5.772308273163457
19.3,-70.76147922167284,-5.855422551719464
19.35,-70.64239464095478,-5.59333397911782
19.4,-69.99209921496822,-5.687586431613269
19.45,-68.9771179090775,-6.603875544171012
19.5,-67.97727124610208,-7.626412907164202
19.55,-67.00782410321709,-8.305643352651941
19.6,-66.24540235996179,-8.567190329994652
19.65,-65.6545447250935,-8.938387257703738
19.7,-65.21154848528973,-9.233401008987626
19.75,-64.81211580024163,-9.490729105311841
19.8,-64.37003673963348,-10.028489159450924
