Time [s],Flexion(-)/extension(+),Supination(+)/pronation(-)
0.0,-101.94782190724473,-94.88194781761175
0.05,-101.91299288731344,-94.78474104312042
0.1,-101.89092161001344,-94.69590565189155
0.15,-101.87160604374762,-94.62802163085982
0.2,-101.78792114785973,-94.5779591862827
0.25,-101.64111114855692,-94.50833533142439
0.3,-101.58138387489788,-94.44888580117016
0.35,-101.61308863175793,-94.45102829637165
0.4,-101.68742784143343,-94.57666692925312
0.45,-101.84223881650568,-94.7943601632854
0.5,-102.096140839728,-95.08877469849672
0.55,-102.36394032481597,-95.46783473667563
0.6,-102.63163190875372,-95.93705952961979
0.65,-103.00825432806758,-96.47994705514246
0.7,-103.57807367660321,-97.14916104239103
0.75,-104.37415080423322,-98.01266157787822
0.8,-105.36761790487888,-99.01913119097897
0.85,-106.34380643248095,-99.98050719144021
0.9,-107.29349511193597,-100.85649246985233
0.95,-108.17599636821488,-101.59985158814703
1.0,-108.89359754922025,-102.22755182597788
1.05,-109.50032905970872,-102.82751541873539
1.1,-109.97403418017417,-103.36241590291021
1.15,-110.364725016421,-103.83719565798492
1.2,-110.7333330825266,-104.26870320117753
1.25,-111.07680548485222,-104.66944810274879
1.3,-111.3446784554853,-105.04253998166739
1.35,-111.30128513943794,-105.33501705085027
1.4,-110.9517625466794,-105.39172797142628
1.45,-110.61420632089154,-105.13966140732914
1.5,-110.32630262849469,-104.71823486419376
1.55,-109.84304480729475,-104.13034953888832
1.6,-109.2251215141203,-103.45497672780992
1.65,-108.6308992656514,-102.90921567404014
1.7,-107.94124313541401,-102.55422714206182
1.75,-107.25499341663627,-102.17151738151148
1.8,-106.64988818844124,-101.83016799054495
1.85,-106.16184551937566,-101.73846998197331
1.9,-105.7580571477588,-101.68606958283516
1.95,-105.46143505131182,-101.67404282698904
2.0,-105.62197089429583,-101.92721810750147
2.05,-105.93825934731066,-102.2944523548645
2.1,-106.07611367279132,-102.40455038953091
2.15,-105.7813634795188,-101.62140789911679
2.2,-105.32177174901065,-100.92856386242849
2.25,-105.5219028531131,-101.08038905004074
2.3,-105.94666767523736,-101.38323565813087
2.35,-106.00138169043363,-101.225630057197
2.4,-105.58886415780772,-100.28022644497598
2.45,-104.76859963455583,-98.56688474303276
2.5,-104.36742318006415,-96.81878720999775
2.55,-104.38769921533272,-95.22100927774484
2.6,-104.42182881336386,-93.35530063663131
2.65,-104.30558245557174,-91.15321071307874
2.7,-104.26310535087268,-88.86238426757794
2.75,-104.33624965895606,-86.78011670253895
2.8,-104.41643116811389,-85.20809046575802
2.85,-104.50774788555773,-83.97014300266491
2.9,-104.65399999709258,-82.99776887393416
2.95,-105.22381322728272,-82.79603525488561
3.0,-106.32835530604461,-83.69098714631625
3.05,-108.80352935155454,-86.5238611023229
3.1,-112.80423297854706,-91.65363811085305
3.15,-116.06269337793742,-96.79728643186036
3.2,-117.72051609648102,-100.88939839645627
3.25,-118.68999033875595,-104.47743472054188
3.3,-118.84981894688686,-107.69217636202339
3.35,-118.8076757588688,-110.83180099304612
3.4,-120.68321712952027,-114.82303899718477
3.45,-122.03107698470937,-117.9039283815087
3.5,-121.73940837899237,-119.51839282532804
3.55,-121.05948772974413,-120.6283668073747
3.6,-120.23070351109523,-121.27972209890817
3.65,-119.52912079945408,-121.98099887281661
3.7,-118.64754249900083,-122.41706866439613
3.75,-116.57323334603716,-122.01781502565764
3.8,-113.38055661203508,-120.50265373404962
3.85,-109.8080799213816,-118.76722798302876
3.9,-106.1072711685806,-116.91248177159757
3.95,-102.19480507045095,-115.01562045345018
4.0,-98.3380229993289,-113.19488234069338
4.05,-94.31452517597174,-111.34803826730553
4.1,-90.14411847872819,-109.43447219508633
4.15,-86.04061292080601,-107.58810505453829
4.2,-82.17313480541958,-105.8048384155395
4.25,-78.56294195636566,-103.85887169405547
4.3,-75.49069604955693,-101.87322886110812
4.35,-72.81242394531981,-100.37070605961223
4.4,-70.0023077295871,-98.70782101939923
4.45,-67.28728320327264,-96.88293963091976
4.5,-64.71638549438092,-95.350827961381
4.55,-62.19632616106538,-93.96396191366709
4.6,-59.71169926306157,-92.82181847359148
4.65,-57.39026671130604,-91.91227514624505
4.7,-55.40273254343129,-91.15880572710378
4.75,-53.80091097735409,-90.83817636662678
4.8,-52.41064430967997,-91.09133692553512
4.85,-51.2914379062947,-91.61819031089895
4.9,-50.27817620118934,-92.12672626559154
4.95,-49.41080953383149,-92.70929942287663
5.0,-48.82645282364088,-93.5355294001174
5.05,-48.540370248355494,-94.33883634177232
5.1,-48.626007240067395,-95.22475191015309
5.15,-49.00001104301026,-96.15466462527779
5.2,-49.22812903533432,-96.99874179735228
5.25,-49.611010597208285,-97.68443547726527
5.3,-49.99335299730667,-98.26844166026093
5.35,-50.521303742781164,-98.66478443527606
5.4,-50.920559363302466,-98.98219413780767
5.45,-51.13826632365156,-99.41185081861978
5.5,-51.21186001944224,-99.8186048603905
5.55,-51.01014804626458,-99.97159132554495
5.6,-50.673699957489646,-100.37445036806757
5.65,-49.319430857453945,-99.8432131832336
5.7,-47.98811849108678,-99.37344147515776
5.75,-46.88379752253251,-98.73610828086805
5.8,-46.6645220565567,-98.65567715222781
5.85,-48.62459493026753,-99.35860123062648
5.9,-52.53427832607185,-100.491072421368
5.95,-57.17298916159466,-101.99157028378673
6.0,-59.90290811922004,-102.17494911633774
6.05,-60.99849126468169,-100.86598912456564
6.1,-61.78522279728753,-99.10501754854309
6.15,-61.99135137418406,-97.29974651142165
6.2,-60.25967542034102,-95.55976594566775
6.25,-57.19651996096655,-93.11062464418728
6.3,-54.61994632614795,-90.79063117812385
6.35,-51.414037544028155,-89.11925686630316
6.4,-48.254883218844014,-88.52416222681784
6.45,-45.79470613559698,-88.71495665913412
6.5,-44.20030308546911,-88.89679132572873
6.55,-43.22730838453516,-89.77128523103194
6.6,-43.52110098119858,-90.41229557260218
6.65,-44.047268806618284,-90.8348936405376
6.7,-45.144917641718564,-91.54075309990496
6.75,-47.174584860675814,-91.44740482633053
6.8,-48.871059424461954,-91.3741320587963
6.85,-50.20755387228039,-91.28047510303578
6.9,-50.95947501363324,-90.37742914155011
6.95,-50.56548600210594,-90.30557089236467
7.0,-50.73345780411404,-90.63397685052898
7.05,-52.08776631622448,-91.27629052523046
7.1,-53.22848805530119,-92.4015094257718
7.15,-54.3851204133815,-93.20275982907559
7.2,-56.12645827471657,-94.31198619724228
7.25,-58.58172116223369,-96.33362943313558
7.3,-62.09814094685168,-99.42007250013557
7.35,-65.25212176008324,-101.78613136753101
7.4,-68.08970104082566,-103.59513445913888
7.45,-70.68503928871498,-105.47468087365452
7.5,-73.55516479144809,-107.78618670335555
7.55,-76.32132208279901,-109.91739305729583
7.6,-79.25950824764996,-111.7510586357808
7.65,-82.02063241013022,-113.42150662228742
7.7,-84.76677771055901,-115.08710903270573
7.75,-86.78929250740016,-116.40678740134241
7.8,-88.25229602202228,-117.2953243109287
7.85,-89.48745008152306,-118.15330397881849
7.9,-90.32489409329992,-118.88672990435431
7.95,-90.7131528314874,-119.1879507083393
8.0,-90.77394847515457,-119.47840421564077
8.05,-90.7841863912167,-119.6709432247569
8.1,-90.90039202081914,-119.78367784032923
8.15,-90.89069633094378,-119.83947877134621
8.2,-90.80078848572182,-119.85429297450806
8.25,-90.60726999067471,-119.79643012210146
8.3,-90.24340778396096,-119.63917651789933
8.35,-89.75758899387175,-119.4084162843953
8.4,-89.36508890627566,-119.13805795770921
8.45,-88.9058830286164,-118.74874255683731
8.5,-88.24969473157942,-118.32686513425125
8.55,-87.57005397629307,-117.82392585248898
8.6,-86.86079833932354,-117.28966963522771
8.65,-86.08115795442548,-116.67661520455385
8.7,-84.99946257942898,-115.92593413271129
8.75,-83.79521025079673,-115.1086234523629
8.8,-82.51038493076096,-114.21499633789244
8.85,-81.04500685672971,-113.2593905377281
8.9,-79.6402758726351,-112.32316673135433
8.95,-78.13290141195486,-111.29927039245037
9.0,-76.68610078981817,-110.33224444676281
9.05,-75.08659598136207,-109.21453237464826
9.1,-73.2978118752569,-108.00699655815471
9.15,-71.26863414981048,-106.65126410884562
9.2,-69.20705487538515,-105.17571137354517
9.25,-67.17383501139633,-103.65289555513766
9.3,-65.12184172840996,-102.1860021179175
9.35,-63.26896175940517,-100.80775423264342
9.4,-61.82318075766522,-99.64834210077133
9.45,-60.57433394803177,-98.44292222101424
9.5,-59.44519040879549,-97.57454218464184
9.55,-58.47691814440114,-96.8912584611737
9.6,-57.48168083789045,-96.03368393910144
9.65,-56.41573293913229,-95.54693115467619
9.7,-55.55381029338668,-95.22591677054815
9.75,-54.834847006494606,-94.7996685372365
9.8,-53.978189515482605,-94.18144476228909
9.85,-53.28393222496976,-93.55574948709032
9.9,-52.62246741677204,-92.88501213387481
9.95,-51.988259405096436,-92.30244809917713
10.0,-51.36841044539364,-91.7319600662117
10.05,-50.67290506623472,-91.15750681774345
10.1,-49.98838450044138,-90.63545759942782
10.15,-49.341071796925974,-90.12695754243227
10.2,-48.70107329488303,-89.51628919271137
10.25,-48.024500315129174,-88.77964509457806
10.3,-47.298567132059794,-88.00049734692671
10.35,-46.703452789384876,-87.38027893347213
10.4,-46.18080815559229,-86.7963668700248
10.45,-45.601893062935304,-86.19396984832967
10.5,-45.10563239067396,-85.7442354475026
10.55,-44.814364684736354,-85.49305182328051
10.6,-44.7618103651619,-85.34070675930928
10.65,-44.804175548856335,-85.15416367755675
10.7,-44.95154804744545,-85.02724682352519
10.75,-45.035599115457316,-84.98564218970112
10.8,-45.34041198505648,-85.22208166277113
10.85,-45.67964746238195,-85.49217428300561
10.9,-46.04454664277151,-85.78022605717739
10.95,-46.45647203457934,-85.99675475273588
11.0,-46.87658836958427,-86.12364492849548
11.05,-47.31069195126927,-86.28286312815474
11.1,-47.800135667082316,-86.50767010322227
11.15,-48.17781892371873,-86.66637889200254
11.2,-48.4195962130619,-86.75484941433061
11.25,-48.567991754555166,-86.81552551213069
11.3,-48.68363681607078,-86.83069904975075
11.35,-48.762465373196164,-86.7833727353129
11.4,-48.81804721844055,-86.67861586671248
11.45,-48.87680104073837,-86.55862069778497
11.5,-48.84379926866624,-86.4158483885298
11.55,-48.77712211797825,-86.31410320149564
11.6,-48.78695382565155,-86.29771856071697
11.65,-48.78341600875882,-86.31314097211472
11.7,-48.768330192398594,-86.28787026266532
11.75,-48.71954153553137,-86.22170504047214
11.8,-48.6212454216647,-86.2080922106443
11.85,-48.44206484915397,-86.29657366779163
11.9,-48.24208886171635,-86.3689832527888
11.95,-48.10502756910308,-86.40342718038734
12.0,-48.17446044242189,-86.51811798745636
12.05,-48.31858564695533,-86.62727047317865
12.1,-48.457001719022834,-86.57057712017948
12.15,-48.572567312081674,-86.46114583124289
12.2,-48.61797230821086,-86.4768153865268
12.25,-48.65022309478028,-86.61361419814918
12.3,-48.807784426297296,-86.7926438857228
12.35,-48.89165632562417,-86.89134274800041
12.4,-48.67497725514659,-86.87892259866015
12.45,-48.29868480402809,-86.94026161293596
12.5,-47.882377452159474,-86.97097048127222
12.55,-47.44703754659696,-87.00779873654955
12.6,-47.145606464667495,-87.00491895856784
12.65,-47.05845623019423,-87.02579767709908
12.7,-47.16029733372139,-87.16487542658201
12.75,-47.32629784104397,-87.29514338815919
12.8,-47.58641035172377,-87.40992702915669
12.85,-47.793442890355074,-87.44244407867387
12.9,-47.98201238491541,-87.44771031736722
12.95,-48.12597065094371,-87.43796028576791
13.0,-47.97756692962324,-87.29699388285468
13.05,-47.66637754827969,-87.03526662111985
13.1,-47.34465216790203,-86.68104795267062
13.15,-47.05645616880181,-86.37077659321513
13.2,-46.76542137728766,-86.13789486562644
13.25,-46.60648271230402,-86.00930884836768
13.3,-46.57334302642301,-86.0751437466091
13.35,-46.70344599427305,-86.32345095670661
13.4,-46.973594829060254,-86.56757215083957
13.45,-47.32652343480438,-86.82661520823763
13.5,-47.749785796177115,-87.12236667685384
13.55,-48.25052033133183,-87.45224801588662
13.6,-48.94322703910926,-87.8355692940185
13.65,-49.94789647365684,-88.30716170527714
13.7,-51.05991742744592,-88.72695655886733
13.75,-52.007640386001775,-89.03712100244385
13.8,-52.70573978048756,-89.32476842291592
13.85,-53.429632029861615,-89.67132634436739
13.9,-54.164671097639506,-89.94661418591706
13.95,-54.91784953002277,-90.17882807438708
14.0,-55.73842646147133,-90.37308651626215
14.05,-56.38250008872226,-90.44954048828647
14.1,-56.79621525368322,-90.44184840970844
14.15,-57.09359217934056,-90.56685546073534
14.2,-57.18451524709991,-90.55246930470561
14.25,-57.282583158292525,-90.42822230092452
14.3,-57.36762923161471,-90.29766755449313
14.35,-57.33526377533358,-90.17260616209354
14.4,-57.28267737087218,-89.97052313789992
14.45,-57.22327497067171,-89.67784969014055
14.5,-56.932791276816204,-89.38332195287123
14.55,-56.63789288406051,-89.32298324948937
14.6,-56.42688836416348,-89.29839762551906
14.65,-56.33957801367456,-89.23462347919646
14.7,-56.17564306583743,-89.09195004256179
14.75,-55.961014712824316,-88.92263571992102
14.8,-55.82937750707968,-88.7244366750801
14.85,-55.691585977172444,-88.5198833203431
14.9,-55.45879301179818,-88.38656229452634
14.95,-55.26383044700212,-88.25551709541938
15.0,-55.20377270923269,-88.12688731387792
15.05,-55.091107652307066,-87.98325170128686
15.1,-54.94030185832657,-87.92173072540893
15.15,-54.861543743342104,-87.9887096196203
15.2,-54.862123440420326,-88.10569562685185
15.25,-54.80169439969967,-88.15145064527758
15.3,-54.69637055744795,-88.1584981432022
15.35,-54.67329017085804,-88.1608354896016
15.4,-54.63265617158871,-88.16221536782307
15.45,-54.54006717215205,-88.11881824441176
15.5,-54.455468574014674,-88.08566158460388
15.55,-54.41527076791425,-88.09908171575576
15.6,-54.41906961443386,-88.11423865432948
15.65,-54.376691607385226,-88.09426379163787
15.7,-54.24150575853558,-88.07069684274457
15.75,-54.1217038405058,-88.04459343895134
15.8,-54.01742765779221,-88.02469291162464
15.85,-53.87133526474866,-87.98068413079638
15.9,-53.650476502520036,-87.91555291111189
15.95,-53.38052619543478,-87.86835232463453
16.0,-53.08181850887813,-87.8129620609691
16.05,-52.70512228297357,-87.6654439124927
16.1,-52.21043052090374,-87.43770548192602
16.15,-51.705493060324216,-87.2238525170847
16.2,-51.32487152457849,-87.01922538862715
16.25,-51.05731192397424,-86.88835228286688
16.3,-50.79666404711918,-86.82475935555824
16.35,-50.57394505903101,-86.83192591152742
16.4,-50.42608738264127,-86.87388688470666
16.45,-50.37462487357798,-86.91581448787439
16.5,-50.529335515328775,-86.97814623014987
16.55,-50.8437031626939,-87.03799807808252
16.6,-51.17891467929863,-87.13291184203162
16.65,-51.46228623789485,-87.258904733187
16.7,-51.58557430479393,-87.31266928654247
16.75,-51.28892106811005,-87.2382002739745
16.8,-50.61073551805019,-87.18724966383978
16.85,-49.79003842181858,-87.10251280788745
16.9,-48.86282579291015,-86.69208724151828
16.95,-47.89995710756395,-85.93489709803784
17.0,-46.64953053378361,-84.87678627143596
17.05,-45.0946439873007,-83.54927095571661
17.1,-43.42595410166138,-81.98490218009364
17.15,-41.703223462943924,-80.28848460205585
17.2,-40.0235372291311,-78.70546208530352
17.25,-38.61505330885455,-77.10310999235872
17.3,-37.54788339408414,-75.55330987362353
17.35,-36.54872910208048,-74.18437712522571
17.4,-35.40139741394536,-73.13316317208347
17.45,-34.29824926306801,-72.31896737744566
17.5,-34.60991668210575,-72.05642762985957
17.55,-37.150851927465524,-72.4103154078456
17.6,-40.576668168012134,-72.85860923357384
17.65,-42.98717634106977,-73.84474197908563
17.7,-43.25512221230578,-74.90098047433095
17.75,-42.43336112376133,-76.11427459134343
17.8,-40.494725585752136,-77.1831189512589
17.85,-37.60791676557136,-77.49627529965103
17.9,-34.73079578672901,-76.3971242971899
17.95,-33.309415989638595,-75.12006807947809
18.0,-32.765901134876486,-74.29065349097459
18.05,-32.702178573946306,-73.17429099004656
18.1,-33.70434949878126,-71.53500877204483
18.15,-35.05699951950069,-68.52152354175729
18.2,-36.65639466027857,-64.92008777924397
18.25,-37.870082066088,-61.24097189331274
18.3,-37.184160157156334,-56.41141759949239
18.35,-34.46174698612482,-50.87447268750476
18.4,-31.89014956789973,-45.80453125712637
18.45,-30.350539006212127,-41.9003930160506
18.5,-31.070667493810394,-39.33011502869731
18.55,-34.824434795526784,-38.35232643089764
18.6,-37.24012780727651,-36.919684149336426
18.65,-36.82696049336636,-35.96284334211972
18.7,-36.7982665691244,-37.38581724212357
18.75,-37.288016225626194,-39.07483394866142
18.8,-38.12787560925676,-41.27426974110946
18.85,-38.92447961079857,-43.775361393119965
18.9,-38.86758986077203,-46.135048191322376
18.95,-38.69801259661358,-48.61253352920008
19.0,-38.61500880531235,-50.99261417033364
19.05,-38.4651704757775,-53.21486526599133
19.1,-38.6156529387611,-55.37330505074319
19.15,-38.83638544539082,-57.13949435817594
19.2,-38.71705771565846,-58.16555207929714
19.25,-38.22232357570668,-58.76303878556062
19.3,-37.97904095377321,-59.266520637981685
19.35,-37.729914869189244,-59.37263725330597
19.4,-37.54664474892654,-59.0947538349294
19.45,-37.314922463021325,-58.37314029077095
19.5,-36.950970573945135,-57.10265648237147
19.55,-36.57887752294158,-55.602373463280486
19.6,-35.935029989611884,-53.702332948032414
19.65,-35.16461134007001,-51.17376960449232
19.7,-34.96434013810824,-48.800577401549475
19.75,-34.822218267704706,-46.63761571271426
19.8,-34.38110630970555,-44.555780270464375
